Action_Label,closing_fist
Fs_Hz,250
Total_Samples,1250

Sample_Index,Raw_EMG,Envelope
0,490.0,532.0666666666667
1,478.0,532.2
2,514.0,532.0666666666667
3,542.0,532.0666666666667
4,532.0,532.1333333333333
5,492.0,532.1333333333333
6,484.0,532.1
7,516.0,532.1333333333333
8,542.0,532.2
9,529.0,532.2
10,490.0,532.2333333333333
11,482.0,532.2333333333333
12,516.0,532.1333333333333
13,540.0,532.0
14,530.0,532.0
15,492.0,531.8
16,483.0,531.7333333333333
17,512.0,531.6333333333333
18,537.0,531.5333333333333
19,530.0,531.5333333333333
20,492.0,531.5666666666667
21,483.0,531.6
22,515.0,531.5666666666667
23,539.0,531.5666666666667
24,527.0,531.5666666666667
25,488.0,531.6666666666666
26,482.0,531.6666666666666
27,514.0,531.7
28,539.0,531.7
29,527.0,531.7666666666667
30,482.0,532.0333333333333
31,477.0,532.0666666666667
32,512.0,532.0
33,539.0,531.9
34,528.0,531.7666666666667
35,490.0,531.8333333333334
36,480.0,531.9666666666667
37,511.0,531.8666666666667
38,536.0,531.6666666666666
39,533.0,531.8
40,494.0,531.6666666666666
41,484.0,531.6
42,516.0,531.6
43,540.0,531.6
44,527.0,531.5
45,489.0,531.6
46,482.0,531.6333333333333
47,514.0,531.7
48,539.0,531.7666666666667
49,525.0,531.6
50,486.0,531.8
51,483.0,531.8
52,515.0,531.8
53,541.0,531.8666666666667
54,528.0,531.9
55,488.0,531.9
56,481.0,531.9333333333333
57,510.0,531.9333333333333
58,535.0,531.8
59,526.0,531.7666666666667
60,491.0,531.4666666666667
61,481.0,531.3333333333334
62,514.0,531.4
63,539.0,531.4
64,529.0,531.4333333333333
65,489.0,531.4666666666667
66,480.0,531.4666666666667
67,513.0,531.4666666666667
68,538.0,531.5333333333333
69,526.0,531.3
70,486.0,531.5666666666667
71,480.0,531.7
72,513.0,531.6
73,539.0,531.5666666666667
74,529.0,531.6333333333333
75,489.0,531.6333333333333
76,479.0,531.7333333333333
77,510.0,531.7333333333333
78,540.0,531.7666666666667
79,528.0,531.8666666666667
80,488.0,531.8
81,477.0,532.0
82,516.0,532.0333333333333
83,542.0,532.0666666666667
84,529.0,532.1
85,491.0,532.0
86,483.0,531.9333333333333
87,508.0,532.0
88,542.0,532.2333333333333
89,530.0,532.3666666666667
90,493.0,532.3
91,484.0,532.2
92,515.0,532.2333333333333
93,537.0,532.1666666666666
94,529.0,532.1666666666666
95,490.0,532.1333333333333
96,482.0,532.0666666666667
97,514.0,532.1
98,539.0,532.1333333333333
99,527.0,532.1666666666666
100,486.0,532.1666666666666
101,479.0,532.2
102,514.0,532.2333333333333
103,540.0,532.2666666666667
104,524.0,532.1
105,490.0,532.0666666666667
106,485.0,531.8666666666667
107,518.0,532.0
108,543.0,532.1
109,526.0,532.0333333333333
110,487.0,532.0666666666667
111,481.0,531.9333333333333
112,513.0,531.8333333333334
113,539.0,531.7333333333333
114,527.0,531.6666666666666
115,489.0,531.7333333333333
116,474.0,532.0333333333333
117,512.0,531.9
118,542.0,531.9
119,530.0,531.9
120,490.0,532.0
121,484.0,532.0
122,515.0,532.0
123,539.0,532.0666666666667
124,527.0,532.0
125,490.0,532.0
126,475.0,532.2333333333333
127,513.0,532.2
128,542.0,532.3
129,530.0,532.4
130,493.0,532.1666666666666
131,485.0,531.9666666666667
132,515.0,532.0
133,539.0,531.9666666666667
134,527.0,532.0666666666667
135,492.0,532.0
136,484.0,532.0333333333333
137,517.0,532.0
138,537.0,531.8
139,522.0,531.6666666666666
140,487.0,531.6666666666666
141,485.0,531.5333333333333
142,519.0,531.7333333333333
143,543.0,531.8666666666667
144,530.0,531.9666666666667
145,491.0,531.9
146,481.0,531.6666666666666
147,516.0,531.8
148,542.0,531.8
149,529.0,531.7666666666667
150,492.0,531.7
151,481.0,531.8
152,510.0,531.7666666666667
153,540.0,531.8
154,525.0,531.7333333333333
155,490.0,531.7333333333333
156,485.0,531.4
157,516.0,531.5
158,537.0,531.3333333333334
159,530.0,531.3333333333334
160,493.0,531.3333333333334
161,484.0,531.3666666666667
162,516.0,531.4
163,541.0,531.4666666666667
164,528.0,531.5
165,489.0,531.6
166,482.0,531.6666666666666
167,513.0,531.5333333333333
168,538.0,531.5666666666667
169,525.0,531.6666666666666
170,486.0,531.7
171,482.0,531.8
172,515.0,531.6666666666666
173,539.0,531.5333333333333
174,527.0,531.4333333333333
175,488.0,531.5333333333333
176,481.0,531.5333333333333
177,512.0,531.4
178,538.0,531.2666666666667
179,527.0,531.2
180,487.0,531.3666666666667
181,481.0,531.3666666666667
182,510.0,531.3666666666667
183,539.0,531.3333333333334
184,529.0,531.4666666666667
185,489.0,531.5
186,482.0,531.6
187,512.0,531.4666666666667
188,538.0,531.5
189,523.0,531.2666666666667
190,495.0,531.2
191,487.0,531.1
192,520.0,531.2333333333333
193,545.0,531.3666666666667
194,532.0,531.5
195,492.0,531.4
196,482.0,531.4
197,516.0,531.5
198,541.0,531.6
199,529.0,531.7333333333333
200,491.0,531.5666666666667
201,483.0,531.5333333333333
202,515.0,531.5333333333333
203,541.0,531.6
204,529.0,531.6666666666666
205,489.0,531.6333333333333
206,481.0,531.6333333333333
207,513.0,531.6666666666666
208,540.0,531.7333333333333
209,527.0,531.7333333333333
210,488.0,531.7
211,480.0,531.7333333333333
212,514.0,531.7333333333333
213,538.0,531.7
214,527.0,531.6333333333333
215,489.0,531.6333333333333
216,482.0,531.6333333333333
217,514.0,531.7
218,540.0,531.7666666666667
219,525.0,531.8333333333334
220,486.0,532.1333333333333
221,478.0,532.4333333333333
222,513.0,532.2
223,539.0,532.0
224,526.0,531.8
225,487.0,531.9666666666667
226,481.0,532.0
227,512.0,531.8666666666667
228,535.0,531.6666666666666
229,528.0,531.6333333333333
230,493.0,531.5666666666667
231,483.0,531.5666666666667
232,515.0,531.5666666666667
233,539.0,531.5
234,529.0,531.5
235,490.0,531.4666666666667
236,474.0,531.7
237,515.0,531.7666666666667
238,543.0,531.8666666666667
239,530.0,531.9666666666667
240,491.0,531.8666666666667
241,477.0,531.9666666666667
242,514.0,531.9666666666667
243,541.0,532.0666666666667
244,530.0,532.1666666666666
245,490.0,532.1333333333333
246,482.0,532.1333333333333
247,515.0,532.1666666666666
248,541.0,532.2
249,527.0,532.2666666666667
250,489.0,532.1666666666666
251,482.0,532.0333333333333
252,513.0,532.0333333333333
253,539.0,532.0333333333333
254,526.0,532.0333333333333
255,487.0,532.0333333333333
256,477.0,532.1666666666666
257,510.0,532.2333333333333
258,536.0,532.2666666666667
259,526.0,532.2
260,483.0,532.5333333333333
261,480.0,532.6333333333333
262,515.0,532.6333333333333
263,542.0,532.7333333333333
264,528.0,532.7
265,488.0,532.7666666666667
266,481.0,532.5333333333333
267,515.0,532.5333333333333
268,540.0,532.4333333333333
269,526.0,532.3
270,487.0,532.4333333333333
271,481.0,532.3
272,514.0,532.3
273,539.0,532.2333333333333
274,528.0,532.1666666666666
275,489.0,532.2
276,482.0,532.2
277,516.0,532.2333333333333
278,535.0,532.0333333333333
279,529.0,532.1
280,490.0,532.0666666666667
281,482.0,532.0666666666667
282,514.0,532.1
283,540.0,532.1333333333333
284,528.0,532.2
285,488.0,532.1666666666666
286,481.0,532.0333333333333
287,512.0,531.9666666666667
288,539.0,532.0666666666667
289,527.0,532.1
290,481.0,532.1666666666666
291,473.0,532.4
292,515.0,532.4
293,545.0,532.5
294,532.0,532.6333333333333
295,491.0,532.5333333333333
296,484.0,532.4333333333333
297,519.0,532.5666666666667
298,544.0,532.7
299,530.0,532.8333333333334
300,490.0,532.7333333333333
301,481.0,532.7333333333333
302,513.0,532.7
303,541.0,532.7666666666667
304,528.0,532.7666666666667
305,489.0,532.7666666666667
306,481.0,532.8
307,512.0,532.6666666666666
308,536.0,532.7
309,529.0,532.7
310,492.0,532.6333333333333
311,483.0,532.6
312,517.0,532.7
313,540.0,532.7
314,528.0,532.7
315,488.0,532.7
316,480.0,532.7333333333333
317,515.0,532.8333333333334
318,537.0,532.7666666666667
319,529.0,532.8333333333334
320,489.0,532.5666666666667
321,484.0,532.2
322,513.0,532.1333333333333
323,541.0,532.0
324,527.0,531.8333333333334
325,490.0,531.8666666666667
326,483.0,531.9
327,516.0,531.8
328,540.0,531.6666666666666
329,524.0,531.4666666666667
330,490.0,531.4666666666667
331,483.0,531.4
332,518.0,531.5666666666667
333,541.0,531.5666666666667
334,528.0,531.5666666666667
335,489.0,531.5666666666667
336,481.0,531.5666666666667
337,515.0,531.6666666666666
338,536.0,531.6666666666666
339,523.0,531.4666666666667
340,490.0,531.5333333333333
341,484.0,531.5
342,515.0,531.4333333333333
343,540.0,531.4333333333333
344,526.0,531.3666666666667
345,489.0,531.3333333333334
346,482.0,531.2666666666667
347,514.0,531.2333333333333
348,540.0,531.3333333333334
349,526.0,531.2333333333333
350,486.0,531.3333333333334
351,482.0,531.4
352,514.0,531.4333333333333
353,539.0,531.3666666666667
354,528.0,531.4
355,488.0,531.4666666666667
356,483.0,531.4666666666667
357,516.0,531.4666666666667
358,542.0,531.5333333333333
359,527.0,531.6333333333333
360,489.0,531.6666666666666
361,479.0,531.8
362,513.0,531.6333333333333
363,535.0,531.4333333333333
364,526.0,531.3666666666667
365,489.0,531.3666666666667
366,481.0,531.3666666666667
367,515.0,531.3666666666667
368,539.0,531.4666666666667
369,519.0,531.3333333333334
370,487.0,531.4333333333333
371,481.0,531.5333333333333
372,514.0,531.5
373,540.0,531.5
374,530.0,531.6333333333333
375,489.0,531.6333333333333
376,483.0,531.6
377,514.0,531.6
378,540.0,531.6
379,530.0,531.7333333333333
380,493.0,531.5
381,485.0,531.4
382,518.0,531.5333333333333
383,540.0,531.5666666666667
384,529.0,531.6
385,491.0,531.5
386,485.0,531.4333333333333
387,514.0,531.3666666666667
388,539.0,531.2666666666667
389,520.0,531.0333333333333
390,491.0,530.9666666666667
391,485.0,530.7666666666667
392,516.0,530.8666666666667
393,541.0,531.0666666666667
394,530.0,531.2
395,488.0,531.2333333333333
396,479.0,531.3
397,509.0,531.3
398,543.0,531.4333333333333
399,531.0,531.8333333333334
400,490.0,531.7333333333333
401,483.0,531.6666666666666
402,519.0,531.8333333333334
403,544.0,531.9666666666667
404,530.0,531.9666666666667
405,489.0,531.9666666666667
406,479.0,532.1
407,515.0,532.1333333333333
408,539.0,532.1
409,524.0,531.9
410,491.0,531.9666666666667
411,483.0,532.0333333333333
412,518.0,532.0333333333333
413,540.0,532.0333333333333
414,524.0,531.8666666666667
415,475.0,532.4
416,454.0,533.4333333333333
417,479.0,534.4666666666667
418,506.0,533.7666666666667
419,511.0,533.5333333333333
420,379.0,537.2666666666667
421,342.0,542.0333333333333
422,473.0,543.2
423,460.0,543.9666666666667
424,408.0,546.8333333333334
425,458.0,547.8333333333334
426,463.0,548.3666666666667
427,379.0,552.7
428,498.0,552.1333333333333
429,622.0,555.1666666666666
430,461.0,556.1333333333333
431,248.0,563.9666666666667
432,386.0,567.9333333333333
433,486.0,567.7333333333333
434,422.0,570.1333333333333
435,429.0,572.1333333333333
436,339.0,576.8
437,586.0,579.1666666666666
438,586.0,580.7333333333333
439,524.0,580.7333333333333
440,551.0,581.3333333333334
441,534.0,581.1
442,430.0,583.6333333333333
443,471.0,584.0666666666666
444,501.0,584.0333333333333
445,316.0,589.3333333333334
446,467.0,588.9
447,691.0,593.7666666666667
448,612.0,596.9
449,382.0,601.2
450,456.0,598.6333333333333
451,601.0,595.9333333333334
452,524.0,595.0333333333333
453,419.0,596.4
454,509.0,593.0333333333333
455,600.0,594.1666666666666
456,637.0,596.7
457,509.0,592.3666666666667
458,341.0,597.6
459,517.0,594.1
460,448.0,594.5333333333333
461,370.0,590.4666666666667
462,579.0,588.5
463,541.0,588.6
464,498.0,586.0666666666666
465,447.0,585.4666666666667
466,210.0,589.7666666666667
467,297.0,594.4666666666667
468,588.0,594.5333333333333
469,653.0,598.8333333333334
470,483.0,598.5
471,478.0,598.9
472,482.0,597.1666666666666
473,453.0,597.7666666666667
474,494.0,598.0
475,600.0,594.4
476,428.0,595.7
477,488.0,590.5333333333333
478,422.0,590.2
479,655.0,590.6333333333333
480,795.0,598.2
481,562.0,596.9
482,521.0,596.8
483,461.0,595.4
484,450.0,597.3666666666667
485,439.0,596.8666666666667
486,595.0,595.4666666666667
487,430.0,598.1
488,667.0,597.5666666666666
489,553.0,598.7666666666667
490,553.0,598.0
491,517.0,593.4333333333334
492,555.0,592.6333333333333
493,378.0,596.1333333333333
494,486.0,596.5333333333333
495,621.0,598.0
496,591.0,590.5666666666666
497,683.0,589.1
498,634.0,590.6333333333333
499,566.0,587.7333333333333
500,473.0,588.0666666666666
501,478.0,588.0666666666666
502,445.0,589.3
503,292.0,594.6666666666666
504,582.0,596.4
505,652.0,598.1333333333333
506,565.0,597.1
507,562.0,597.9666666666667
508,534.0,595.7
509,503.0,591.2333333333333
510,392.0,585.8
511,462.0,585.8
512,609.0,588.7333333333333
513,662.0,592.0333333333333
514,533.0,590.6666666666666
515,479.0,589.3333333333334
516,362.0,591.5666666666666
517,614.0,592.2333333333333
518,556.0,588.5333333333333
519,642.0,591.5
520,640.0,594.4
521,590.0,596.8333333333334
522,556.0,596.8666666666667
523,571.0,594.3666666666667
524,549.0,594.7333333333333
525,539.0,592.0
526,519.0,589.6
527,534.0,584.6333333333333
528,606.0,583.7
529,584.0,584.3
530,538.0,583.8666666666667
531,516.0,582.8666666666667
532,534.0,581.3666666666667
533,579.0,576.2666666666667
534,562.0,575.6
535,517.0,571.1
536,510.0,569.4
537,532.0,568.4
538,566.0,569.4666666666667
539,565.0,570.9333333333333
540,533.0,567.6333333333333
541,519.0,566.2
542,557.0,564.4666666666667
543,599.0,562.3666666666667
544,559.0,563.2333333333333
545,496.0,562.6666666666666
546,484.0,558.6
547,527.0,555.7
548,562.0,555.9
549,531.0,552.2
550,479.0,549.0333333333333
551,452.0,548.4333333333333
552,494.0,547.5666666666667
553,516.0,545.7333333333333
554,481.0,545.5333333333333
555,453.0,546.6
556,450.0,548.4333333333333
557,485.0,548.6
558,509.0,545.5666666666667
559,483.0,544.1333333333333
560,449.0,545.3666666666667
561,447.0,547.4
562,485.0,547.5666666666667
563,515.0,545.4333333333333
564,506.0,543.9666666666667
565,465.0,545.3666666666667
566,461.0,547.0
567,497.0,546.8333333333334
568,520.0,545.3
569,498.0,544.0
570,470.0,544.7
571,471.0,545.8333333333334
572,500.0,544.7333333333333
573,527.0,542.3333333333334
574,514.0,540.8333333333334
575,473.0,541.6
576,460.0,542.4
577,501.0,542.2666666666667
578,527.0,541.1
579,507.0,540.6333333333333
580,464.0,541.1333333333333
581,461.0,540.8333333333334
582,487.0,541.0666666666667
583,527.0,541.4333333333333
584,519.0,540.6333333333333
585,479.0,539.7666666666667
586,474.0,538.9666666666667
587,507.0,538.2333333333333
588,522.0,538.4666666666667
589,514.0,537.5666666666667
590,475.0,536.7
591,471.0,535.9
592,506.0,535.2
593,532.0,535.7666666666667
594,516.0,535.7
595,481.0,535.1666666666666
596,482.0,534.4666666666667
597,520.0,534.2333333333333
598,546.0,535.1
599,527.0,535.1333333333333
600,490.0,534.4666666666667
601,488.0,533.9
602,525.0,533.9333333333333
603,550.0,534.7
604,536.0,535.4333333333333
605,494.0,534.7333333333333
606,491.0,533.7
607,527.0,533.8333333333334
608,553.0,534.7
609,537.0,535.3666666666667
610,497.0,534.2666666666667
611,490.0,533.3
612,525.0,532.9
613,552.0,533.7333333333333
614,539.0,534.4
615,497.0,533.8
616,492.0,533.2
617,529.0,533.6
618,552.0,534.6
619,537.0,535.3666666666667
620,496.0,534.6666666666666
621,488.0,534.1
622,528.0,534.4333333333333
623,556.0,535.2333333333333
624,545.0,536.2
625,505.0,535.4
626,496.0,534.9333333333333
627,531.0,535.3
628,556.0,535.6333333333333
629,540.0,536.0666666666667
630,502.0,535.6666666666666
631,492.0,535.5333333333333
632,521.0,535.4
633,551.0,535.4333333333333
634,540.0,535.5666666666667
635,502.0,535.3
636,494.0,535.2
637,526.0,535.1666666666666
638,551.0,535.1
639,538.0,535.1333333333333
640,498.0,535.1
641,491.0,535.0666666666667
642,521.0,534.9333333333333
643,545.0,534.7
644,533.0,534.5
645,493.0,534.6333333333333
646,490.0,534.7
647,522.0,534.4666666666667
648,547.0,534.3
649,535.0,534.2333333333333
650,496.0,534.2333333333333
651,491.0,534.1333333333333
652,523.0,533.9666666666667
653,546.0,533.6333333333333
654,535.0,533.3
655,495.0,533.6333333333333
656,486.0,533.9666666666667
657,521.0,533.6333333333333
658,547.0,533.3333333333334
659,534.0,533.1333333333333
660,489.0,533.5666666666667
661,488.0,533.7
662,525.0,533.8333333333334
663,550.0,533.8
664,538.0,533.7333333333333
665,498.0,533.8666666666667
666,490.0,534.0
667,515.0,533.6333333333333
668,544.0,533.4
669,539.0,533.4333333333333
670,499.0,533.4
671,492.0,533.3666666666667
672,524.0,533.4666666666667
673,549.0,533.6
674,537.0,533.7333333333333
675,495.0,533.6666666666666
676,490.0,533.6666666666666
677,524.0,533.7333333333333
678,549.0,533.8
679,536.0,533.8333333333334
680,497.0,533.8
681,487.0,533.9333333333333
682,523.0,533.9333333333333
683,548.0,534.0
684,534.0,533.9666666666667
685,494.0,534.0
686,489.0,533.9
687,523.0,533.9666666666667
688,547.0,533.9666666666667
689,535.0,534.0
690,494.0,533.8333333333334
691,485.0,533.9333333333333
692,518.0,533.7
693,537.0,533.2666666666667
694,533.0,533.1
695,496.0,533.1666666666666
696,488.0,533.2333333333333
697,518.0,533.3333333333334
698,539.0,533.1666666666666
699,529.0,532.8333333333334
700,490.0,533.1333333333333
701,481.0,533.5
702,521.0,533.4
703,546.0,533.3
704,533.0,533.1666666666666
705,495.0,533.1666666666666
706,489.0,533.2
707,523.0,533.1666666666666
708,547.0,533.1
709,533.0,533.0
710,495.0,533.0666666666667
711,486.0,533.1
712,518.0,532.9333333333333
713,543.0,532.7666666666667
714,532.0,532.7
715,493.0,532.7333333333333
716,485.0,532.8666666666667
717,516.0,532.6333333333333
718,540.0,532.4
719,532.0,532.3
720,495.0,532.2666666666667
721,487.0,532.2
722,518.0,532.2
723,541.0,532.3333333333334
724,536.0,532.4333333333333
725,500.0,532.3
726,490.0,532.2333333333333
727,522.0,532.3666666666667
728,546.0,532.6
729,533.0,532.7333333333333
730,492.0,532.6666666666666
731,478.0,532.7666666666667
732,521.0,532.7666666666667
733,550.0,532.9
734,539.0,533.1
735,502.0,532.8666666666667
736,489.0,532.8666666666667
737,515.0,532.6
738,548.0,532.6333333333333
739,534.0,532.6666666666666
740,491.0,532.8
741,488.0,532.7333333333333
742,522.0,532.8666666666667
743,546.0,532.9666666666667
744,532.0,532.9666666666667
745,488.0,533.1333333333333
746,479.0,533.3333333333334
747,510.0,533.2666666666667
748,544.0,533.4
749,516.0,532.8666666666667
750,498.0,532.7666666666667
751,482.0,532.9333333333333
752,511.0,532.7666666666667
753,541.0,532.7666666666667
754,544.0,533.0333333333333
755,506.0,532.8333333333334
756,491.0,532.8
757,529.0,533.0333333333333
758,548.0,533.1
759,530.0,533.0
760,498.0,532.8
761,489.0,532.4333333333333
762,521.0,532.4333333333333
763,543.0,532.2
764,532.0,531.9666666666667
765,493.0,532.2666666666667
766,486.0,532.3666666666667
767,516.0,532.4
768,539.0,532.1
769,526.0,531.8333333333334
770,490.0,531.8666666666667
771,480.0,532.1333333333333
772,508.0,531.9333333333333
773,540.0,531.7333333333333
774,529.0,531.6333333333333
775,497.0,531.3333333333334
776,485.0,531.1333333333333
777,514.0,531.1333333333333
778,534.0,530.8
779,532.0,531.3333333333334
780,497.0,531.3666666666667
781,481.0,531.4
782,519.0,531.6
783,538.0,531.5
784,535.0,531.2
785,497.0,531.5
786,487.0,531.6333333333333
787,518.0,531.2666666666667
788,543.0,531.1
789,529.0,531.0666666666667
790,492.0,531.2666666666667
791,484.0,531.4333333333333
792,518.0,531.3333333333334
793,544.0,531.3666666666667
794,526.0,531.1666666666666
795,487.0,531.3666666666667
796,489.0,531.2666666666667
797,518.0,531.3333333333334
798,542.0,531.4333333333333
799,519.0,531.2
800,494.0,531.0666666666667
801,485.0,530.9
802,522.0,531.1
803,544.0,531.2333333333333
804,531.0,531.3
805,494.0,531.4
806,489.0,531.2666666666667
807,520.0,531.4666666666667
808,542.0,531.7333333333333
809,529.0,531.6333333333333
810,489.0,531.9
811,481.0,531.9
812,512.0,531.6666666666666
813,537.0,531.6333333333333
814,529.0,531.4333333333333
815,484.0,531.8666666666667
816,481.0,532.0666666666667
817,516.0,532.0
818,541.0,531.9333333333333
819,514.0,531.4333333333333
820,484.0,531.7
821,485.0,531.6666666666666
822,523.0,531.8333333333334
823,548.0,531.9666666666667
824,531.0,532.1333333333333
825,493.0,531.9333333333333
826,485.0,532.0666666666667
827,516.0,532.0
828,538.0,531.8666666666667
829,518.0,531.8333333333334
830,486.0,532.1
831,486.0,532.0666666666667
832,513.0,531.7666666666667
833,541.0,531.6666666666666
834,531.0,531.6666666666666
835,494.0,531.6666666666666
836,484.0,531.8333333333334
837,512.0,531.5666666666667
838,527.0,531.0666666666667
839,519.0,530.7333333333333
840,485.0,530.8666666666667
841,492.0,530.5
842,523.0,530.8666666666667
843,543.0,531.0666666666667
844,535.0,531.2666666666667
845,496.0,530.8666666666667
846,485.0,530.7333333333333
847,513.0,530.6333333333333
848,541.0,530.6333333333333
849,529.0,531.1333333333333
850,493.0,530.8333333333334
851,485.0,530.8333333333334
852,515.0,530.5666666666667
853,540.0,530.3
854,530.0,530.2666666666667
855,489.0,530.4
856,472.0,530.8333333333334
857,503.0,531.0
858,539.0,531.0333333333333
859,533.0,531.5333333333333
860,496.0,531.2
861,487.0,531.1666666666666
862,513.0,531.1666666666666
863,542.0,531.2
864,530.0,531.1666666666666
865,494.0,531.1666666666666
866,484.0,531.1666666666666
867,515.0,531.2666666666667
868,537.0,531.6
869,525.0,531.8
870,486.0,531.7666666666667
871,480.0,532.1666666666666
872,514.0,531.8666666666667
873,541.0,531.8
874,525.0,531.4666666666667
875,488.0,531.7333333333333
876,480.0,531.9
877,502.0,532.2
878,525.0,531.6666666666666
879,528.0,531.6333333333333
880,498.0,531.4666666666667
881,489.0,531.3333333333334
882,521.0,531.5333333333333
883,544.0,531.6666666666666
884,528.0,531.6
885,491.0,531.5333333333333
886,482.0,531.2
887,515.0,531.0
888,538.0,530.9666666666667
889,527.0,530.7666666666667
890,486.0,531.1
891,478.0,531.4
892,510.0,531.4333333333333
893,538.0,531.3
894,526.0,531.1666666666666
895,487.0,531.4
896,479.0,531.5666666666667
897,512.0,531.4666666666667
898,533.0,531.3333333333334
899,527.0,531.4
900,485.0,531.4333333333333
901,483.0,531.3333333333334
902,517.0,531.4333333333333
903,533.0,531.1666666666666
904,523.0,531.1
905,483.0,531.2666666666667
906,486.0,531.0666666666667
907,521.0,531.0333333333333
908,546.0,531.7333333333333
909,532.0,531.8666666666667
910,492.0,532.0666666666667
911,484.0,532.2333333333333
912,513.0,531.9666666666667
913,539.0,531.8
914,529.0,531.8333333333334
915,490.0,531.8666666666667
916,483.0,531.8333333333334
917,506.0,531.9333333333333
918,535.0,531.8333333333334
919,532.0,532.0
920,491.0,531.8333333333334
921,485.0,531.6
922,518.0,531.7333333333333
923,536.0,531.6666666666666
924,526.0,531.6666666666666
925,483.0,531.8
926,479.0,531.8
927,517.0,531.9666666666667
928,547.0,532.4333333333333
929,531.0,532.5666666666667
930,490.0,532.4
931,485.0,532.3333333333334
932,516.0,532.3
933,538.0,532.4666666666667
934,529.0,532.6666666666666
935,490.0,532.4333333333333
936,480.0,532.6333333333333
937,505.0,532.5666666666667
938,531.0,532.0666666666667
939,529.0,531.9666666666667
940,496.0,531.8333333333334
941,487.0,531.7333333333333
942,518.0,531.9
943,542.0,532.0
944,526.0,531.9
945,490.0,531.9
946,485.0,531.8333333333334
947,513.0,531.6666666666666
948,541.0,531.8666666666667
949,528.0,531.7333333333333
950,493.0,531.6666666666666
951,486.0,531.6333333333333
952,519.0,531.6666666666666
953,541.0,531.8333333333334
954,528.0,531.9
955,491.0,531.6333333333333
956,484.0,531.4666666666667
957,506.0,531.5
958,537.0,531.1666666666666
959,526.0,531.0
960,491.0,530.9666666666667
961,482.0,531.0666666666667
962,517.0,531.1
963,540.0,531.1666666666666
964,522.0,530.9333333333333
965,488.0,531.0
966,484.0,530.8666666666667
967,519.0,530.8666666666667
968,544.0,531.3
969,525.0,531.1666666666666
970,496.0,531.1666666666666
971,487.0,531.1666666666666
972,512.0,530.9666666666667
973,537.0,530.8
974,524.0,530.7333333333333
975,485.0,530.9
976,481.0,531.0333333333333
977,518.0,531.2
978,546.0,531.3666666666667
979,531.0,531.4666666666667
980,490.0,531.5666666666667
981,475.0,531.9333333333333
982,511.0,531.7333333333333
983,542.0,531.7666666666667
984,533.0,531.9333333333333
985,494.0,531.8333333333334
986,484.0,531.8333333333334
987,511.0,531.6666666666666
988,541.0,531.8
989,529.0,531.9
990,485.0,532.1
991,478.0,532.2333333333333
992,517.0,532.2333333333333
993,541.0,532.2666666666667
994,523.0,532.3
995,490.0,532.2333333333333
996,477.0,532.4666666666667
997,512.0,532.2333333333333
998,540.0,532.1
999,528.0,532.2
1000,487.0,532.5
1001,479.0,532.7666666666667
1002,514.0,532.8333333333334
1003,536.0,532.8
1004,512.0,532.4
1005,491.0,532.2
1006,492.0,531.8333333333334
1007,522.0,531.9666666666667
1008,542.0,531.8333333333334
1009,533.0,531.9
1010,489.0,531.9333333333333
1011,482.0,531.7
1012,515.0,531.7666666666667
1013,536.0,531.5666666666667
1014,518.0,531.0666666666667
1015,483.0,531.4333333333333
1016,479.0,531.6
1017,509.0,531.6666666666666
1018,533.0,531.4
1019,520.0,531.1
1020,488.0,531.0
1021,481.0,530.9
1022,508.0,530.8666666666667
1023,536.0,530.7
1024,518.0,530.5333333333333
1025,488.0,530.6
1026,477.0,530.6
1027,516.0,530.7333333333333
1028,543.0,530.8333333333334
1029,532.0,530.9666666666667
1030,493.0,530.7666666666667
1031,483.0,530.6333333333333
1032,507.0,530.7333333333333
1033,535.0,530.7
1034,528.0,531.2333333333333
1035,492.0,531.2
1036,483.0,531.5
1037,515.0,531.2666666666667
1038,536.0,531.0666666666667
1039,516.0,530.5
1040,482.0,530.7333333333333
1041,488.0,530.5333333333333
1042,517.0,530.6
1043,539.0,530.7
1044,531.0,531.1333333333333
1045,492.0,530.8333333333334
1046,484.0,530.6666666666666
1047,514.0,530.6333333333333
1048,537.0,530.7666666666667
1049,523.0,530.8666666666667
1050,487.0,530.9
1051,479.0,530.9666666666667
1052,513.0,530.8666666666667
1053,536.0,530.8666666666667
1054,523.0,531.0333333333333
1055,488.0,531.0333333333333
1056,479.0,530.9666666666667
1057,512.0,530.8333333333334
1058,537.0,530.6333333333333
1059,524.0,530.3666666666667
1060,484.0,530.6666666666666
1061,479.0,530.8
1062,514.0,530.7
1063,539.0,530.8333333333334
1064,525.0,530.7333333333333
1065,487.0,530.9
1066,480.0,531.0
1067,510.0,530.9666666666667
1068,540.0,531.1
1069,525.0,531.4
1070,489.0,531.1666666666666
1071,487.0,531.2
1072,521.0,531.3333333333334
1073,538.0,531.3
1074,528.0,531.2
1075,492.0,531.2
1076,486.0,531.1333333333333
1077,519.0,531.3
1078,544.0,531.5333333333333
1079,531.0,531.8
1080,491.0,531.6666666666666
1081,482.0,531.5666666666667
1082,516.0,531.6666666666666
1083,542.0,531.8666666666667
1084,528.0,532.0333333333333
1085,487.0,532.0666666666667
1086,483.0,531.9333333333333
1087,515.0,532.0333333333333
1088,543.0,532.2333333333333
1089,531.0,532.4666666666667
1090,493.0,532.1666666666666
1091,486.0,531.9333333333333
1092,518.0,532.0666666666667
1093,540.0,532.1
1094,524.0,532.0666666666667
1095,492.0,531.9
1096,486.0,531.7
1097,517.0,531.8
1098,540.0,531.8
1099,529.0,531.9333333333333
1100,492.0,531.8333333333334
1101,485.0,531.9
1102,513.0,531.6333333333333
1103,536.0,531.5666666666667
1104,514.0,531.1
1105,489.0,531.2
1106,481.0,531.3666666666667
1107,514.0,531.2
1108,535.0,530.9
1109,524.0,530.6666666666666
1110,487.0,530.8
1111,474.0,531.0666666666667
1112,509.0,531.0333333333333
1113,534.0,530.7666666666667
1114,521.0,530.5333333333333
1115,481.0,530.7333333333333
1116,476.0,530.9666666666667
1117,511.0,530.9
1118,532.0,530.5333333333333
1119,514.0,529.9666666666667
1120,483.0,530.3
1121,478.0,530.5666666666667
1122,510.0,530.4333333333333
1123,521.0,529.8
1124,522.0,529.7333333333333
1125,485.0,529.9666666666667
1126,478.0,530.2333333333333
1127,510.0,530.1333333333333
1128,534.0,529.9333333333333
1129,522.0,529.7
1130,484.0,529.9666666666667
1131,476.0,530.2666666666667
1132,507.0,530.4
1133,532.0,530.2666666666667
1134,520.0,530.4666666666667
1135,483.0,530.6666666666666
1136,469.0,531.0666666666667
1137,507.0,531.1666666666666
1138,534.0,531.1333333333333
1139,524.0,531.1333333333333
1140,488.0,531.1
1141,481.0,530.8666666666667
1142,513.0,530.8
1143,536.0,530.8666666666667
1144,519.0,530.8
1145,478.0,530.9
1146,479.0,530.8
1147,512.0,530.7666666666667
1148,535.0,530.8666666666667
1149,518.0,531.0
1150,484.0,530.9666666666667
1151,479.0,530.9333333333333
1152,513.0,530.9
1153,538.0,531.4666666666667
1154,522.0,531.4666666666667
1155,484.0,531.5
1156,480.0,531.4333333333333
1157,518.0,531.5666666666667
1158,538.0,531.7
1159,524.0,531.7666666666667
1160,487.0,531.6666666666666
1161,479.0,531.5666666666667
1162,512.0,531.4
1163,539.0,531.6333333333333
1164,527.0,531.8666666666667
1165,487.0,531.7333333333333
1166,480.0,531.3666666666667
1167,513.0,531.2333333333333
1168,538.0,531.3666666666667
1169,527.0,531.4666666666667
1170,487.0,531.5
1171,480.0,531.5333333333333
1172,513.0,531.5333333333333
1173,539.0,531.6333333333333
1174,525.0,531.8333333333334
1175,486.0,531.5666666666667
1176,478.0,531.6
1177,513.0,531.6333333333333
1178,538.0,531.7333333333333
1179,526.0,532.0
1180,487.0,531.9
1181,480.0,531.8666666666667
1182,514.0,531.9
1183,539.0,531.9333333333333
1184,527.0,532.1
1185,489.0,531.9333333333333
1186,485.0,531.7666666666667
1187,515.0,531.6666666666666
1188,538.0,531.6666666666666
1189,529.0,531.8333333333334
1190,493.0,531.6333333333333
1191,486.0,531.4
1192,515.0,531.5
1193,541.0,531.5666666666667
1194,530.0,531.6666666666666
1195,488.0,531.6333333333333
1196,487.0,531.4
1197,514.0,531.4333333333333
1198,532.0,531.2333333333333
1199,534.0,531.4666666666667
1200,496.0,531.1666666666666
1201,485.0,531.0
1202,516.0,531.1
1203,538.0,531.0666666666667
1204,523.0,531.0
1205,483.0,531.1
1206,474.0,531.2333333333333
1207,508.0,531.3333333333334
1208,534.0,531.2
1209,520.0,531.0
1210,481.0,531.2
1211,475.0,531.3666666666667
1212,510.0,531.3666666666667
1213,535.0,531.2333333333333
1214,521.0,531.0333333333333
1215,482.0,531.2666666666667
1216,477.0,531.5333333333333
1217,505.0,531.6666666666666
1218,528.0,531.3333333333334
1219,527.0,531.2666666666667
1220,489.0,531.4
1221,482.0,531.5333333333333
1222,511.0,531.4666666666667
1223,528.0,531.0333333333333
1224,530.0,531.0333333333333
1225,495.0,530.8
1226,488.0,530.7666666666667
1227,517.0,530.8666666666667
1228,544.0,531.2666666666667
1229,529.0,531.1
1230,488.0,531.3666666666667
1231,483.0,531.4333333333333
1232,506.0,531.5
1233,543.0,531.6666666666666
1234,534.0,532.0333333333333
1235,495.0,531.6333333333333
1236,487.0,531.2
1237,520.0,531.3333333333334
1238,533.0,531.3
1239,526.0,531.5
1240,498.0,530.9333333333333
1241,493.0,530.3333333333334
1242,527.0,530.7666666666667
1243,553.0,531.3666666666667
1244,538.0,531.9333333333333
1245,499.0,531.3666666666667
1246,493.0,530.8333333333334
1247,524.0,531.0
1248,550.0,531.7333333333333
1249,539.0,532.1333333333333
