Action_Label,lifting_cup_7s
Fs_Hz,250
Total_Samples,1750

Sample_Index,Raw_EMG,Envelope
0,497.0,525.5666666666667
1,526.0,525.9666666666667
2,531.0,525.9
3,503.0,525.9666666666667
4,487.0,526.2
5,501.0,526.1666666666666
6,525.0,526.1666666666666
7,534.0,526.2333333333333
8,509.0,526.2333333333333
9,486.0,526.4333333333333
10,494.0,526.6333333333333
11,522.0,526.8333333333334
12,536.0,526.9333333333333
13,516.0,526.9
14,490.0,527.1333333333333
15,489.0,527.6
16,519.0,527.4666666666667
17,538.0,527.7666666666667
18,517.0,527.6666666666666
19,492.0,527.5
20,502.0,527.4
21,521.0,527.4
22,525.0,527.2666666666667
23,517.0,527.3666666666667
24,496.0,527.1666666666666
25,500.0,527.0666666666667
26,521.0,527.0
27,532.0,526.8333333333334
28,516.0,526.9
29,491.0,526.5
30,498.0,526.4666666666667
31,523.0,526.3666666666667
32,530.0,526.3333333333334
33,509.0,526.1333333333333
34,485.0,526.2
35,495.0,526.4
36,523.0,526.3333333333334
37,536.0,526.4
38,514.0,526.3666666666667
39,489.0,526.2666666666667
40,497.0,526.1666666666666
41,523.0,526.2
42,518.0,525.6
43,510.0,525.5333333333333
44,496.0,525.3333333333334
45,504.0,524.8333333333334
46,527.0,525.1
47,535.0,525.0
48,513.0,524.8666666666667
49,475.0,525.4333333333333
50,497.0,525.6
51,526.0,525.7666666666667
52,536.0,526.1333333333333
53,517.0,526.1333333333333
54,503.0,525.9
55,502.0,525.8333333333334
56,527.0,526.0333333333333
57,536.0,526.1666666666666
58,515.0,526.1333333333333
59,489.0,526.2
60,497.0,526.2333333333333
61,522.0,526.2
62,530.0,526.2
63,519.0,526.3333333333334
64,491.0,526.1333333333333
65,494.0,526.1666666666666
66,519.0,526.0333333333333
67,531.0,525.8666666666667
68,513.0,525.8333333333334
69,475.0,526.3
70,492.0,526.4666666666667
71,526.0,526.5666666666667
72,543.0,527.4
73,517.0,527.5
74,491.0,527.6666666666666
75,501.0,527.7666666666667
76,528.0,527.8
77,530.0,527.6333333333333
78,509.0,527.7
79,484.0,527.4
80,501.0,527.2666666666667
81,525.0,527.2333333333333
82,536.0,527.2333333333333
83,516.0,527.2
84,493.0,527.5333333333333
85,497.0,527.7
86,523.0,527.5666666666667
87,532.0,527.4333333333333
88,513.0,527.3666666666667
89,489.0,527.3666666666667
90,499.0,527.3
91,519.0,527.2
92,531.0,527.2333333333333
93,511.0,527.0333333333333
94,469.0,527.7666666666667
95,500.0,527.5666666666667
96,527.0,527.8333333333334
97,535.0,527.9666666666667
98,515.0,528.0333333333333
99,491.0,527.5
100,498.0,527.3
101,518.0,527.0333333333333
102,525.0,526.4333333333333
103,517.0,526.4333333333333
104,493.0,526.3666666666667
105,494.0,526.6
106,521.0,526.3666666666667
107,534.0,526.5
108,504.0,526.6666666666666
109,484.0,526.6666666666666
110,498.0,526.7666666666667
111,526.0,526.8
112,536.0,526.8
113,515.0,526.7666666666667
114,483.0,527.1
115,500.0,527.0
116,524.0,527.0333333333333
117,536.0,527.1666666666666
118,516.0,527.2666666666667
119,490.0,527.2333333333333
120,495.0,527.3666666666667
121,517.0,527.3
122,536.0,527.4666666666667
123,516.0,527.5666666666667
124,495.0,526.7
125,490.0,527.0333333333333
126,519.0,526.7666666666667
127,532.0,526.6666666666666
128,511.0,526.6
129,487.0,526.7333333333333
130,490.0,527.0
131,522.0,527.1333333333333
132,532.0,527.3666666666667
133,513.0,527.2333333333333
134,480.0,527.6666666666666
135,496.0,527.6
136,528.0,527.8333333333334
137,533.0,527.8
138,510.0,527.6
139,492.0,527.3333333333334
140,499.0,527.3
141,521.0,527.1333333333333
142,529.0,526.9
143,509.0,526.9
144,496.0,526.4666666666667
145,496.0,526.6
146,520.0,526.4666666666667
147,531.0,526.3
148,510.0,526.2333333333333
149,492.0,526.1666666666666
150,496.0,526.1333333333333
151,522.0,526.3
152,531.0,526.1333333333333
153,506.0,526.2
154,485.0,526.5333333333333
155,501.0,526.1666666666666
156,526.0,526.4
157,530.0,526.3333333333334
158,516.0,526.4333333333333
159,492.0,526.2666666666667
160,495.0,526.1
161,518.0,525.9666666666667
162,525.0,525.7333333333333
163,518.0,525.9
164,490.0,525.5666666666667
165,496.0,525.5666666666667
166,522.0,525.3666666666667
167,534.0,525.4
168,513.0,525.3666666666667
169,485.0,525.6
170,499.0,525.6
171,524.0,525.7
172,534.0,525.8666666666667
173,512.0,525.7666666666667
174,489.0,526.0
175,496.0,526.0
176,524.0,526.1333333333333
177,534.0,526.2333333333333
178,517.0,526.3333333333334
179,488.0,526.4666666666667
180,494.0,526.5333333333333
181,517.0,526.3666666666667
182,513.0,525.7666666666667
183,501.0,525.9333333333333
184,497.0,525.5333333333333
185,509.0,525.2666666666667
186,529.0,525.3666666666667
187,534.0,525.5
188,514.0,525.4333333333333
189,489.0,525.5333333333333
190,496.0,525.5
191,523.0,525.6666666666666
192,534.0,525.9666666666667
193,511.0,525.8
194,484.0,526.0
195,493.0,526.1
196,522.0,526.1
197,523.0,525.7333333333333
198,515.0,525.8
199,498.0,525.3666666666667
200,503.0,525.2333333333333
201,528.0,525.3666666666667
202,529.0,525.2
203,508.0,525.3333333333334
204,494.0,525.1666666666666
205,501.0,525.0
206,528.0,525.1333333333333
207,537.0,525.2333333333333
208,509.0,525.1666666666666
209,489.0,525.1333333333333
210,499.0,524.9666666666667
211,530.0,525.4
212,538.0,526.2333333333333
213,514.0,525.9333333333333
214,488.0,526.2333333333333
215,494.0,526.7333333333333
216,512.0,526.1666666666666
217,537.0,526.2666666666667
218,518.0,526.4
219,491.0,526.3333333333334
220,496.0,526.3333333333334
221,527.0,526.4666666666667
222,534.0,526.4666666666667
223,514.0,526.5
224,486.0,526.4333333333333
225,498.0,526.2666666666667
226,517.0,526.1
227,532.0,526.4
228,516.0,526.4333333333333
229,483.0,526.9333333333333
230,497.0,527.1333333333333
231,527.0,527.1
232,535.0,527.3
233,513.0,527.2
234,489.0,527.3666666666667
235,499.0,527.4333333333333
236,519.0,527.1333333333333
237,534.0,527.0333333333333
238,517.0,527.1
239,492.0,527.0
240,499.0,527.0
241,528.0,526.9333333333333
242,533.0,526.7666666666667
243,505.0,526.9333333333333
244,490.0,526.8666666666667
245,498.0,526.7333333333333
246,526.0,527.2
247,519.0,526.6
248,512.0,526.4
249,491.0,526.4
250,496.0,526.4
251,522.0,526.2333333333333
252,527.0,526.0
253,513.0,525.9666666666667
254,491.0,525.8
255,498.0,525.8
256,520.0,525.9
257,533.0,525.9333333333333
258,516.0,525.9333333333333
259,490.0,525.7
260,495.0,525.7666666666667
261,522.0,525.6
262,530.0,525.4333333333333
263,513.0,525.4333333333333
264,494.0,525.2666666666667
265,488.0,525.6333333333333
266,520.0,525.6666666666666
267,528.0,525.4666666666667
268,518.0,525.5
269,498.0,525.3
270,502.0,525.2
271,519.0,524.9
272,531.0,524.8333333333334
273,518.0,524.8
274,495.0,524.6333333333333
275,497.0,524.6666666666666
276,519.0,524.4333333333333
277,529.0,524.7666666666667
278,514.0,524.8333333333334
279,493.0,524.7666666666667
280,500.0,524.6333333333333
281,526.0,524.7666666666667
282,538.0,525.1333333333333
283,515.0,525.2
284,489.0,525.2666666666667
285,492.0,525.4666666666667
286,522.0,525.5333333333333
287,537.0,525.6666666666666
288,511.0,525.5666666666667
289,490.0,525.5666666666667
290,496.0,525.5333333333333
291,513.0,525.2333333333333
292,528.0,525.1666666666666
293,513.0,525.1666666666666
294,492.0,525.2333333333333
295,499.0,524.8666666666667
296,524.0,525.0
297,533.0,525.1666666666666
298,513.0,525.0
299,488.0,525.3333333333334
300,495.0,525.5666666666667
301,517.0,525.5
302,535.0,525.6333333333333
303,511.0,525.4666666666667
304,487.0,525.7333333333333
305,497.0,525.7333333333333
306,521.0,525.8
307,531.0,525.8666666666667
308,512.0,525.8
309,488.0,525.9666666666667
310,494.0,526.1666666666666
311,518.0,525.9
312,531.0,525.6666666666666
313,512.0,525.5666666666667
314,487.0,525.6333333333333
315,494.0,525.5666666666667
316,519.0,525.4666666666667
317,533.0,525.3333333333334
318,517.0,525.4666666666667
319,491.0,525.4333333333333
320,495.0,525.4666666666667
321,521.0,525.7333333333333
322,533.0,525.9
323,513.0,525.9
324,488.0,526.0333333333333
325,495.0,526.1666666666666
326,519.0,526.0
327,529.0,525.8666666666667
328,515.0,525.9333333333333
329,488.0,525.9333333333333
330,494.0,525.9666666666667
331,520.0,526.0666666666667
332,529.0,525.8666666666667
333,510.0,525.9
334,487.0,525.9
335,494.0,526.0
336,519.0,525.9333333333333
337,531.0,525.9333333333333
338,513.0,525.9666666666667
339,488.0,525.9666666666667
340,496.0,525.9
341,529.0,526.2666666666667
342,543.0,526.6666666666666
343,523.0,527.0333333333333
344,499.0,526.6333333333333
345,498.0,526.5
346,508.0,526.4
347,511.0,525.7333333333333
348,491.0,526.2666666666667
349,472.0,526.9
350,483.0,527.3
351,511.0,527.0333333333333
352,528.0,526.8666666666667
353,515.0,526.9333333333333
354,491.0,526.8333333333334
355,494.0,526.8666666666667
356,515.0,526.7333333333333
357,529.0,526.7333333333333
358,515.0,526.7333333333333
359,496.0,526.4666666666667
360,501.0,526.2333333333333
361,521.0,526.2666666666667
362,533.0,526.4
363,516.0,526.4666666666667
364,493.0,526.2666666666667
365,493.0,526.3
366,516.0,526.2
367,534.0,526.3
368,519.0,526.5
369,491.0,526.4
370,496.0,526.4
371,517.0,526.0
372,523.0,525.3333333333334
373,510.0,525.0333333333333
374,500.0,525.0
375,502.0,524.8666666666667
376,524.0,525.1333333333333
377,538.0,525.9666666666667
378,528.0,525.8
379,516.0,524.6
380,527.0,524.1333333333333
381,552.0,525.4333333333333
382,568.0,526.7666666666667
383,560.0,528.2666666666667
384,541.0,528.5333333333333
385,540.0,528.8666666666667
386,555.0,530.2
387,570.0,531.5666666666667
388,560.0,533.0666666666667
389,532.0,533.2
390,524.0,533.2333333333333
391,539.0,533.8333333333334
392,542.0,534.1333333333333
393,521.0,534.3
394,484.0,534.6
395,476.0,535.1666666666666
396,488.0,535.8333333333334
397,493.0,535.7333333333333
398,471.0,536.8666666666667
399,440.0,538.5666666666667
400,430.0,540.7666666666667
401,440.0,543.0
402,451.0,544.6666666666666
403,433.0,547.2333333333333
404,393.0,550.8
405,375.0,555.0333333333333
406,382.0,558.9666666666667
407,381.0,562.4666666666667
408,360.0,567.0
409,328.0,573.0
410,312.0,579.1666666666666
411,325.0,584.0666666666666
412,333.0,588.1666666666666
413,356.0,591.7666666666667
414,343.0,596.4333333333334
415,352.0,600.8333333333334
416,385.0,603.6333333333333
417,415.0,604.9333333333334
418,422.0,606.3333333333334
419,419.0,608.7666666666667
420,425.0,611.2666666666667
421,459.0,612.1333333333333
422,492.0,611.8
423,504.0,611.7666666666667
424,500.0,611.2333333333333
425,506.0,610.2333333333333
426,527.0,609.9333333333334
427,551.0,610.6
428,561.0,610.8666666666667
429,557.0,609.9666666666667
430,551.0,608.5333333333333
431,566.0,607.9333333333334
432,576.0,608.0333333333333
433,581.0,607.7
434,570.0,605.6666666666666
435,568.0,602.9666666666667
436,578.0,600.8333333333334
437,584.0,598.8666666666667
438,577.0,595.9666666666667
439,558.0,591.3666666666667
440,547.0,585.8666666666667
441,548.0,580.8333333333334
442,550.0,576.1333333333333
443,546.0,572.0666666666667
444,530.0,567.0333333333333
445,519.0,561.9333333333333
446,522.0,558.0333333333333
447,518.0,555.0
448,511.0,552.0333333333333
449,495.0,549.5
450,483.0,547.5666666666667
451,486.0,546.6666666666666
452,498.0,546.4666666666667
453,490.0,546.9333333333333
454,471.0,547.9
455,461.0,549.4
456,460.0,550.6333333333333
457,467.0,550.8333333333334
458,466.0,550.7333333333333
459,448.0,551.3666666666667
460,436.0,552.6
461,438.0,553.2666666666667
462,443.0,553.4333333333333
463,434.0,553.7333333333333
464,417.0,554.9666666666667
465,407.0,556.6
466,406.0,557.9333333333333
467,406.0,559.0666666666667
468,393.0,560.8666666666667
469,366.0,564.2
470,337.0,568.8666666666667
471,336.0,573.5333333333333
472,327.0,578.4333333333334
473,294.0,584.5666666666666
474,282.0,591.6333333333333
475,295.0,598.6333333333333
476,326.0,604.5
477,360.0,609.3666666666667
478,384.0,613.6
479,391.0,617.0666666666666
480,409.0,619.5333333333333
481,443.0,620.9666666666667
482,474.0,621.7666666666667
483,486.0,621.9
484,482.0,621.5333333333333
485,488.0,620.6333333333333
486,523.0,619.2666666666667
487,549.0,619.0
488,556.0,618.9333333333334
489,549.0,618.0333333333333
490,562.0,617.1666666666666
491,592.0,617.3666666666667
492,617.0,618.5666666666666
493,625.0,619.7333333333333
494,632.0,620.5666666666666
495,644.0,621.4666666666667
496,679.0,623.5
497,726.0,627.1
498,727.0,630.3
499,715.0,632.2
500,728.0,633.5666666666666
501,750.0,635.6333333333333
502,767.0,637.9666666666667
503,749.0,638.6
504,718.0,637.8
505,725.0,637.6666666666666
506,744.0,639.2
507,748.0,642.0
508,725.0,644.8333333333334
509,690.0,646.7333333333333
510,679.0,648.8666666666667
511,679.0,652.1333333333333
512,691.0,656.8333333333334
513,682.0,661.6333333333333
514,659.0,665.5333333333333
515,660.0,669.6666666666666
516,675.0,674.7333333333333
517,681.0,679.1333333333333
518,656.0,682.4666666666667
519,621.0,684.8666666666667
520,620.0,686.8
521,650.0,688.7333333333333
522,656.0,690.0333333333333
523,632.0,690.2666666666667
524,604.0,689.3333333333334
525,609.0,688.1666666666666
526,623.0,686.3
527,623.0,682.8666666666667
528,609.0,678.9333333333334
529,578.0,674.3666666666667
530,575.0,669.2666666666667
531,596.0,664.1333333333333
532,608.0,658.8333333333334
533,589.0,653.5
534,542.0,647.6333333333333
535,545.0,641.6333333333333
536,578.0,636.1
537,594.0,630.9666666666667
538,574.0,625.9333333333334
539,543.0,621.0333333333333
540,540.0,616.4
541,559.0,612.4
542,561.0,608.0666666666666
543,526.0,602.8666666666667
544,509.0,598.0666666666666
545,521.0,593.4333333333334
546,561.0,589.6333333333333
547,556.0,585.4666666666667
548,535.0,581.4333333333334
549,500.0,578.2
550,499.0,575.0333333333333
551,524.0,570.8333333333334
552,545.0,567.1333333333333
553,515.0,563.2333333333333
554,492.0,560.8333333333334
555,495.0,558.1666666666666
556,519.0,554.7
557,538.0,551.8666666666667
558,518.0,548.8333333333334
559,478.0,547.7666666666667
560,467.0,547.1666666666666
561,506.0,544.5666666666667
562,535.0,542.1333333333333
563,530.0,540.1666666666666
564,495.0,539.7333333333333
565,483.0,539.6
566,506.0,537.6
567,515.0,534.9666666666667
568,488.0,533.7
569,459.0,534.4333333333333
570,493.0,534.1333333333333
571,530.0,533.1666666666666
572,547.0,532.7
573,519.0,532.4666666666667
574,481.0,533.4
575,495.0,533.6666666666666
576,522.0,532.3666666666667
577,518.0,531.1
578,487.0,531.1666666666666
579,468.0,532.2333333333333
580,475.0,533.0333333333333
581,492.0,533.3
582,518.0,532.4
583,495.0,532.8666666666667
584,466.0,533.7333333333333
585,472.0,534.5
586,506.0,534.4666666666667
587,518.0,533.8
588,498.0,534.0666666666667
589,474.0,534.2
590,474.0,533.9666666666667
591,495.0,534.3333333333334
592,507.0,533.7333333333333
593,491.0,533.8333333333334
594,471.0,534.6333333333333
595,483.0,534.6333333333333
596,509.0,534.5333333333333
597,513.0,534.4666666666667
598,489.0,534.4333333333333
599,462.0,534.3333333333334
600,470.0,535.1
601,487.0,535.3333333333334
602,488.0,534.9666666666667
603,483.0,535.7
604,481.0,535.7
605,492.0,535.8
606,510.0,535.5333333333333
607,503.0,535.6333333333333
608,489.0,535.5666666666667
609,467.0,535.6
610,466.0,535.9
611,496.0,535.7666666666667
612,513.0,535.6
613,505.0,535.2666666666667
614,478.0,534.8666666666667
615,479.0,534.6333333333333
616,500.0,534.8333333333334
617,524.0,535.0333333333333
618,507.0,534.7333333333333
619,475.0,534.7
620,466.0,534.9666666666667
621,478.0,535.5333333333333
622,493.0,536.0
623,478.0,536.4333333333333
624,458.0,536.8666666666667
625,458.0,537.7
626,480.0,538.6666666666666
627,483.0,539.6
628,472.0,540.1666666666666
629,467.0,540.0
630,472.0,539.9333333333333
631,461.0,540.8
632,447.0,542.1666666666666
633,471.0,542.5666666666667
634,502.0,541.8666666666667
635,490.0,541.9333333333333
636,498.0,542.3333333333334
637,508.0,542.1666666666666
638,478.0,542.5333333333333
639,441.0,543.4
640,449.0,543.9666666666667
641,507.0,543.6
642,511.0,543.6
643,484.0,544.3
644,453.0,545.1333333333333
645,439.0,546.4666666666667
646,444.0,548.3333333333334
647,457.0,549.7666666666667
648,448.0,551.7333333333333
649,435.0,553.0666666666667
650,426.0,554.4
651,416.0,556.4666666666667
652,397.0,559.6666666666666
653,423.0,561.5
654,409.0,563.1333333333333
655,388.0,565.4666666666667
656,378.0,568.8666666666667
657,410.0,571.3
658,425.0,572.8666666666667
659,417.0,574.5333333333333
660,404.0,576.8
661,406.0,578.6333333333333
662,434.0,579.0666666666666
663,447.0,579.8666666666667
664,438.0,582.0
665,436.0,583.8
666,425.0,586.2333333333333
667,425.0,589.0
668,451.0,589.9
669,457.0,589.3666666666667
670,454.0,589.2
671,460.0,590.7666666666667
672,470.0,592.1333333333333
673,447.0,593.3666666666667
674,418.0,594.5333333333333
675,481.0,593.1333333333333
676,496.0,591.4
677,520.0,589.8333333333334
678,509.0,587.8
679,454.0,587.1666666666666
680,472.0,585.6333333333333
681,512.0,582.4333333333334
682,503.0,578.9
683,495.0,576.5
684,511.0,573.1
685,513.0,569.0
686,509.0,564.6333333333333
687,480.0,562.3
688,503.0,559.7
689,526.0,557.0
690,514.0,553.4666666666667
691,515.0,550.0333333333333
692,517.0,547.6
693,507.0,545.6
694,493.0,543.7666666666667
695,510.0,541.3
696,530.0,539.0
697,522.0,536.4333333333333
698,515.0,534.5
699,506.0,532.8666666666667
700,484.0,531.8666666666667
701,484.0,531.0666666666667
702,504.0,529.9333333333333
703,522.0,528.1
704,533.0,525.6666666666666
705,523.0,525.0
706,515.0,524.5666666666667
707,490.0,525.0333333333333
708,496.0,525.4666666666667
709,513.0,523.5666666666667
710,517.0,522.4
711,539.0,523.3
712,528.0,523.5333333333333
713,536.0,523.7666666666667
714,549.0,524.9666666666667
715,543.0,525.9666666666667
716,514.0,525.9333333333333
717,509.0,524.9666666666667
718,549.0,525.9
719,553.0,526.8
720,555.0,528.1666666666666
721,560.0,529.6666666666666
722,561.0,531.1333333333333
723,543.0,532.0
724,530.0,531.9666666666667
725,530.0,532.5
726,554.0,533.3
727,549.0,534.2
728,532.0,534.7666666666667
729,525.0,535.0
730,546.0,535.2
731,589.0,536.8333333333334
732,562.0,538.2333333333333
733,521.0,538.2
734,530.0,538.1
735,561.0,539.3666666666667
736,552.0,540.6
737,526.0,540.3333333333334
738,558.0,541.3333333333334
739,565.0,543.0666666666667
740,579.0,545.1333333333333
741,584.0,546.6333333333333
742,568.0,547.9666666666667
743,531.0,547.8
744,518.0,546.7666666666667
745,549.0,546.9666666666667
746,575.0,549.0
747,562.0,550.5666666666667
748,529.0,549.9
749,513.0,548.5666666666667
750,564.0,548.8666666666667
751,590.0,549.8666666666667
752,572.0,550.2333333333333
753,537.0,550.0333333333333
754,528.0,549.9666666666667
755,566.0,551.1666666666666
756,576.0,551.9
757,541.0,551.6333333333333
758,488.0,551.7666666666667
759,535.0,552.1
760,594.0,553.7
761,606.0,554.2666666666667
762,566.0,554.4
763,500.0,554.5
764,508.0,554.0333333333333
765,564.0,554.1333333333333
766,578.0,555.0
767,545.0,555.6333333333333
768,515.0,554.2
769,519.0,552.6666666666666
770,583.0,552.8
771,607.0,553.5666666666667
772,578.0,553.9
773,523.0,553.6333333333333
774,504.0,553.7
775,544.0,553.5333333333333
776,572.0,553.4333333333333
777,550.0,553.0333333333333
778,511.0,552.5
779,504.0,552.7333333333333
780,549.0,552.2333333333333
781,587.0,552.1333333333333
782,557.0,551.6333333333333
783,495.0,551.3666666666667
784,484.0,551.7666666666667
785,532.0,550.6333333333333
786,580.0,550.7666666666667
787,577.0,551.9666666666667
788,517.0,551.3333333333334
789,497.0,551.0666666666667
790,533.0,549.0333333333333
791,558.0,547.4333333333333
792,543.0,546.6666666666666
793,514.0,546.3333333333334
794,506.0,546.4
795,529.0,545.2333333333333
796,527.0,543.5333333333333
797,521.0,542.7333333333333
798,503.0,542.9333333333333
799,501.0,543.0666666666667
800,529.0,541.2666666666667
801,558.0,539.6333333333333
802,533.0,538.1333333333333
803,462.0,539.4333333333333
804,454.0,541.1
805,543.0,541.0666666666667
806,569.0,540.9666666666667
807,547.0,540.8666666666667
808,505.0,541.0666666666667
809,485.0,541.7
810,502.0,540.8
811,525.0,538.7333333333333
812,513.0,537.2666666666667
813,502.0,537.0333333333333
814,518.0,536.3
815,550.0,536.9
816,557.0,536.1333333333333
817,524.0,534.3666666666667
818,475.0,535.4333333333333
819,493.0,535.5666666666667
820,533.0,535.5666666666667
821,546.0,535.1666666666666
822,527.0,534.6333333333333
823,485.0,535.4666666666667
824,454.0,537.2
825,497.0,537.1333333333333
826,566.0,538.4333333333333
827,552.0,539.4666666666667
828,498.0,539.6333333333333
829,485.0,540.1666666666666
830,525.0,540.0333333333333
831,545.0,539.6
832,513.0,538.9333333333333
833,481.0,538.3
834,482.0,537.3666666666667
835,525.0,536.7666666666667
836,552.0,536.2
837,532.0,535.7
838,497.0,535.9666666666667
839,467.0,536.5666666666667
840,502.0,536.5666666666667
841,554.0,537.5333333333333
842,537.0,538.3333333333334
843,485.0,538.9
844,476.0,539.9
845,524.0,539.0333333333333
846,543.0,538.5666666666667
847,526.0,538.6333333333333
848,500.0,537.8
849,483.0,538.1333333333333
850,509.0,537.5333333333333
851,535.0,537.1666666666666
852,523.0,537.0333333333333
853,483.0,537.1
854,478.0,536.3
855,507.0,535.9666666666667
856,547.0,535.3333333333334
857,549.0,535.2333333333333
858,505.0,535.0
859,482.0,535.1
860,506.0,534.8666666666667
861,533.0,534.4666666666667
862,533.0,535.1333333333333
863,502.0,534.4333333333333
864,490.0,534.1666666666666
865,525.0,534.1666666666666
866,544.0,533.9
867,524.0,533.6333333333333
868,487.0,533.9666666666667
869,476.0,533.6666666666666
870,519.0,533.5666666666667
871,539.0,533.0666666666667
872,529.0,532.8
873,494.0,532.5
874,469.0,532.7333333333333
875,518.0,532.5333333333333
876,552.0,532.8333333333334
877,541.0,533.3333333333334
878,500.0,533.3333333333334
879,488.0,533.1666666666666
880,509.0,533.1666666666666
881,532.0,533.0666666666667
882,533.0,533.4
883,506.0,532.6333333333333
884,492.0,532.1666666666666
885,511.0,532.0333333333333
886,529.0,531.4333333333333
887,535.0,530.9666666666667
888,509.0,530.8333333333334
889,485.0,530.7333333333333
890,510.0,530.6
891,544.0,530.9666666666667
892,538.0,531.1333333333333
893,499.0,531.2333333333333
894,487.0,531.3333333333334
895,516.0,531.0333333333333
896,520.0,530.2333333333333
897,511.0,529.8666666666667
898,503.0,529.3333333333334
899,502.0,528.4666666666667
900,525.0,528.6666666666666
901,536.0,528.5666666666667
902,516.0,528.1333333333333
903,483.0,528.5
904,484.0,528.0
905,505.0,528.0333333333333
906,528.0,527.2333333333333
907,526.0,526.7333333333333
908,498.0,526.8
909,492.0,526.6666666666666
910,522.0,526.9
911,531.0,526.8666666666667
912,507.0,526.3333333333334
913,496.0,526.6666666666666
914,498.0,526.4666666666667
915,528.0,526.9666666666667
916,541.0,527.3666666666667
917,521.0,526.9
918,483.0,527.7666666666667
919,465.0,528.4333333333333
920,488.0,529.1666666666666
921,536.0,528.9
922,524.0,528.4333333333333
923,496.0,528.5333333333333
924,499.0,528.1333333333333
925,532.0,528.6666666666666
926,536.0,529.2
927,508.0,529.3
928,477.0,530.1666666666666
929,483.0,530.8
930,508.0,530.5
931,526.0,530.1666666666666
932,522.0,530.3666666666667
933,497.0,529.9
934,489.0,529.7333333333333
935,511.0,529.5333333333333
936,523.0,529.3666666666667
937,519.0,529.1333333333333
938,489.0,529.4333333333333
939,489.0,529.5333333333333
940,528.0,529.7333333333333
941,537.0,529.9333333333333
942,513.0,529.8
943,467.0,530.7666666666667
944,460.0,532.0333333333333
945,523.0,531.8666666666667
946,551.0,532.2
947,529.0,532.4666666666667
948,492.0,532.1666666666666
949,486.0,531.4666666666667
950,506.0,530.8666666666667
951,517.0,530.2333333333333
952,511.0,529.8666666666667
953,487.0,530.1666666666666
954,485.0,530.6333333333333
955,519.0,530.2
956,544.0,530.4666666666667
957,525.0,530.7666666666667
958,489.0,530.3666666666667
959,472.0,530.7333333333333
960,508.0,530.7333333333333
961,531.0,530.9
962,527.0,531.0666666666667
963,495.0,531.1333333333333
964,486.0,531.2333333333333
965,520.0,531.4666666666667
966,540.0,532.0333333333333
967,530.0,532.4
968,491.0,532.3333333333334
969,475.0,532.8
970,501.0,532.6333333333333
971,528.0,532.3333333333334
972,530.0,532.9
973,493.0,532.0333333333333
974,485.0,531.2
975,514.0,530.9
976,526.0,530.0666666666667
977,518.0,529.7
978,493.0,529.6666666666666
979,480.0,529.8666666666667
980,502.0,530.0
981,530.0,530.4333333333333
982,525.0,530.8333333333334
983,498.0,530.4666666666667
984,496.0,530.1
985,520.0,530.1333333333333
986,531.0,529.7
987,504.0,529.5333333333333
988,466.0,530.3
989,488.0,529.7666666666667
990,529.0,530.2
991,545.0,530.6666666666666
992,528.0,530.7
993,490.0,530.8666666666667
994,478.0,531.1333333333333
995,510.0,530.9333333333333
996,528.0,530.5333333333333
997,515.0,530.0333333333333
998,484.0,530.2666666666667
999,481.0,530.0666666666667
1000,509.0,529.8
1001,526.0,529.7333333333333
1002,496.0,529.6666666666666
1003,474.0,530.3
1004,494.0,530.0
1005,525.0,530.3666666666667
1006,537.0,530.7333333333333
1007,506.0,530.7333333333333
1008,462.0,531.7666666666667
1009,481.0,531.7333333333333
1010,530.0,532.0
1011,542.0,532.4
1012,528.0,532.5
1013,493.0,532.6666666666666
1014,497.0,532.6333333333333
1015,517.0,532.5333333333333
1016,528.0,532.4333333333333
1017,516.0,532.3
1018,483.0,531.7333333333333
1019,480.0,532.0
1020,513.0,531.4666666666667
1021,524.0,530.7666666666667
1022,510.0,530.3
1023,481.0,530.6
1024,493.0,530.1
1025,510.0,530.1
1026,519.0,529.8
1027,520.0,529.9666666666667
1028,498.0,529.5
1029,488.0,529.2666666666667
1030,512.0,529.1666666666666
1031,530.0,529.3
1032,522.0,529.1
1033,488.0,528.6333333333333
1034,472.0,529.3666666666667
1035,496.0,529.4666666666667
1036,528.0,529.1666666666666
1037,516.0,529.1
1038,498.0,527.9
1039,500.0,527.2666666666667
1040,518.0,526.8666666666667
1041,526.0,526.3333333333334
1042,518.0,526.0
1043,495.0,525.9333333333333
1044,490.0,526.1666666666666
1045,512.0,526.0
1046,525.0,525.9
1047,519.0,526.0
1048,492.0,525.7
1049,490.0,525.3666666666667
1050,519.0,525.5666666666667
1051,533.0,525.8666666666667
1052,517.0,525.9666666666667
1053,484.0,525.8666666666667
1054,479.0,526.3333333333334
1055,505.0,526.5
1056,530.0,526.8666666666667
1057,517.0,526.7666666666667
1058,490.0,527.0333333333333
1059,490.0,526.9666666666667
1060,503.0,527.2666666666667
1061,515.0,526.7666666666667
1062,519.0,526.6666666666666
1063,505.0,526.1
1064,492.0,525.4333333333333
1065,519.0,525.1333333333333
1066,532.0,525.2666666666667
1067,509.0,525.2333333333333
1068,490.0,525.5
1069,478.0,526.2333333333333
1070,503.0,526.3333333333334
1071,529.0,526.4333333333333
1072,523.0,526.6
1073,493.0,526.6666666666666
1074,478.0,527.0666666666667
1075,500.0,527.4666666666667
1076,529.0,527.6
1077,530.0,527.9666666666667
1078,505.0,527.5333333333333
1079,496.0,527.3333333333334
1080,520.0,527.3666666666667
1081,529.0,527.2333333333333
1082,509.0,527.1666666666666
1083,480.0,527.3
1084,490.0,526.9333333333333
1085,523.0,527.0666666666667
1086,533.0,527.1666666666666
1087,514.0,527.0666666666667
1088,492.0,527.0
1089,486.0,527.1333333333333
1090,507.0,527.0
1091,533.0,527.6
1092,526.0,527.8333333333334
1093,500.0,528.0
1094,494.0,527.9333333333333
1095,512.0,527.7
1096,527.0,527.5333333333333
1097,511.0,527.4666666666667
1098,487.0,527.5666666666667
1099,482.0,527.4333333333333
1100,508.0,527.2666666666667
1101,534.0,527.4333333333333
1102,521.0,527.3666666666667
1103,493.0,527.3666666666667
1104,490.0,526.9666666666667
1105,514.0,526.6333333333333
1106,523.0,526.4333333333333
1107,519.0,526.0666666666667
1108,497.0,526.3333333333334
1109,497.0,526.3
1110,517.0,526.2
1111,525.0,526.0666666666667
1112,507.0,526.1333333333333
1113,485.0,525.9666666666667
1114,494.0,525.8333333333334
1115,520.0,525.7333333333333
1116,525.0,525.4666666666667
1117,498.0,525.8666666666667
1118,484.0,526.1333333333333
1119,499.0,525.7
1120,527.0,526.0333333333333
1121,541.0,526.3
1122,518.0,526.0333333333333
1123,484.0,526.5666666666667
1124,483.0,526.9333333333333
1125,514.0,527.0
1126,534.0,527.2333333333333
1127,508.0,527.3333333333334
1128,468.0,527.9666666666667
1129,485.0,527.8666666666667
1130,523.0,528.1
1131,539.0,528.2666666666667
1132,527.0,528.4666666666667
1133,493.0,528.4666666666667
1134,486.0,528.6
1135,524.0,528.9333333333333
1136,529.0,529.1333333333333
1137,507.0,529.0666666666667
1138,490.0,529.3
1139,492.0,529.4666666666667
1140,520.0,529.5666666666667
1141,527.0,529.6333333333333
1142,503.0,529.7666666666667
1143,479.0,529.9666666666667
1144,483.0,530.3333333333334
1145,514.0,530.1333333333333
1146,535.0,530.4666666666667
1147,529.0,530.5666666666667
1148,494.0,530.2333333333333
1149,490.0,530.5333333333333
1150,512.0,530.0333333333333
1151,527.0,529.5666666666667
1152,516.0,529.5
1153,490.0,529.3
1154,478.0,529.4666666666667
1155,508.0,529.5333333333333
1156,528.0,529.3333333333334
1157,516.0,529.3333333333334
1158,488.0,528.6666666666666
1159,495.0,528.3333333333334
1160,522.0,528.3
1161,534.0,528.1333333333333
1162,513.0,527.6666666666666
1163,482.0,528.0333333333333
1164,484.0,528.1
1165,510.0,527.7666666666667
1166,526.0,527.6666666666666
1167,521.0,527.8
1168,491.0,527.7666666666667
1169,479.0,528.2
1170,505.0,528.1666666666666
1171,523.0,528.0333333333333
1172,515.0,527.8333333333334
1173,500.0,527.1333333333333
1174,495.0,526.7333333333333
1175,513.0,526.7
1176,521.0,526.2333333333333
1177,512.0,525.6666666666666
1178,497.0,525.5666666666667
1179,496.0,525.3666666666667
1180,516.0,525.5
1181,531.0,525.6333333333333
1182,519.0,525.7333333333333
1183,496.0,525.5333333333333
1184,489.0,525.1666666666666
1185,500.0,525.4333333333333
1186,519.0,525.1333333333333
1187,522.0,525.3333333333334
1188,497.0,525.0333333333333
1189,487.0,525.3
1190,514.0,525.0333333333333
1191,529.0,524.8666666666667
1192,522.0,525.1666666666666
1193,496.0,524.7
1194,490.0,524.5
1195,513.0,524.4666666666667
1196,527.0,524.5
1197,514.0,524.2666666666667
1198,490.0,524.3
1199,485.0,524.1
1200,510.0,523.9333333333333
1201,533.0,524.2666666666667
1202,519.0,524.4
1203,490.0,524.7333333333333
1204,485.0,525.0666666666667
1205,510.0,525.1
1206,526.0,525.2666666666667
1207,521.0,525.5666666666667
1208,477.0,526.2333333333333
1209,451.0,527.7333333333333
1210,521.0,527.9
1211,556.0,528.7333333333333
1212,537.0,529.3333333333334
1213,500.0,529.2
1214,489.0,529.2
1215,515.0,528.9
1216,529.0,529.2333333333333
1217,514.0,528.9666666666667
1218,485.0,529.3666666666667
1219,488.0,529.3333333333334
1220,515.0,529.3666666666667
1221,535.0,529.5666666666667
1222,517.0,529.4
1223,490.0,529.6
1224,481.0,529.9
1225,511.0,529.9
1226,526.0,529.8666666666667
1227,501.0,530.1666666666666
1228,487.0,530.2666666666667
1229,500.0,529.7666666666667
1230,524.0,530.1
1231,540.0,530.3333333333334
1232,520.0,530.3666666666667
1233,492.0,530.3
1234,493.0,530.0333333333333
1235,521.0,530.2666666666667
1236,538.0,530.6666666666666
1237,514.0,530.4333333333333
1238,477.0,530.4333333333333
1239,491.0,529.1
1240,527.0,529.3
1241,539.0,528.7333333333333
1242,523.0,528.2666666666667
1243,488.0,528.6666666666666
1244,479.0,529.0
1245,509.0,529.0
1246,531.0,529.0666666666667
1247,519.0,529.2333333333333
1248,494.0,528.9333333333333
1249,483.0,529.1
1250,508.0,529.1333333333333
1251,528.0,528.9
1252,521.0,529.0333333333333
1253,491.0,529.0
1254,481.0,529.0
1255,513.0,529.0
1256,533.0,529.2333333333333
1257,521.0,529.1666666666666
1258,495.0,528.9
1259,495.0,529.0666666666667
1260,518.0,528.8666666666667
1261,534.0,528.6666666666666
1262,520.0,528.6666666666666
1263,489.0,528.7666666666667
1264,480.0,529.2
1265,498.0,529.3666666666667
1266,522.0,528.8333333333334
1267,519.0,529.0
1268,491.0,528.5333333333333
1269,489.0,528.6
1270,518.0,528.3
1271,535.0,528.1666666666666
1272,523.0,528.1666666666666
1273,490.0,528.1
1274,487.0,527.8333333333334
1275,519.0,527.9666666666667
1276,536.0,528.1333333333333
1277,527.0,528.4
1278,495.0,528.3666666666667
1279,483.0,528.3666666666667
1280,504.0,528.5
1281,517.0,528.1333333333333
1282,514.0,527.9
1283,488.0,528.0
1284,488.0,527.7666666666667
1285,516.0,527.8666666666667
1286,519.0,527.4
1287,508.0,527.2333333333333
1288,503.0,526.9666666666667
1289,498.0,526.8666666666667
1290,521.0,526.9666666666667
1291,529.0,526.8
1292,516.0,526.6666666666666
1293,489.0,526.6666666666666
1294,477.0,526.7666666666667
1295,499.0,526.7333333333333
1296,524.0,526.8
1297,518.0,526.7666666666667
1298,501.0,526.4333333333333
1299,497.0,526.1666666666666
1300,518.0,526.1666666666666
1301,528.0,525.9333333333333
1302,514.0,525.6333333333333
1303,488.0,525.7
1304,491.0,525.5666666666667
1305,518.0,525.5333333333333
1306,528.0,525.2666666666667
1307,507.0,524.9333333333333
1308,465.0,525.9333333333333
1309,467.0,526.4666666666667
1310,512.0,526.2
1311,542.0,527.0333333333333
1312,525.0,527.4
1313,483.0,527.5666666666667
1314,487.0,527.6
1315,522.0,527.8
1316,539.0,528.4666666666667
1317,529.0,528.9
1318,501.0,528.9666666666667
1319,494.0,529.1
1320,518.0,529.0
1321,534.0,529.1666666666666
1322,519.0,529.2666666666667
1323,494.0,529.1
1324,490.0,528.6666666666666
1325,518.0,528.4333333333333
1326,522.0,528.3666666666667
1327,516.0,528.3
1328,494.0,528.5333333333333
1329,487.0,528.8666666666667
1330,503.0,528.9666666666667
1331,517.0,528.6
1332,518.0,528.7333333333333
1333,498.0,528.4
1334,504.0,527.9666666666667
1335,523.0,528.1333333333333
1336,536.0,528.4
1337,518.0,528.4333333333333
1338,486.0,527.7333333333333
1339,480.0,527.3
1340,512.0,527.3
1341,527.0,526.8
1342,521.0,526.6666666666666
1343,492.0,526.3666666666667
1344,488.0,526.3333333333334
1345,517.0,526.1666666666666
1346,530.0,525.8666666666667
1347,519.0,525.5333333333333
1348,485.0,526.0666666666667
1349,482.0,526.4666666666667
1350,522.0,526.6
1351,536.0,526.6666666666666
1352,520.0,526.7
1353,486.0,526.9666666666667
1354,491.0,526.9333333333333
1355,523.0,527.1
1356,534.0,527.5
1357,516.0,527.5
1358,487.0,527.7333333333333
1359,491.0,527.6
1360,519.0,527.5333333333333
1361,533.0,528.0666666666667
1362,520.0,528.1333333333333
1363,497.0,528.1666666666666
1364,491.0,528.6
1365,509.0,528.3333333333334
1366,523.0,527.9
1367,518.0,527.9
1368,491.0,527.7333333333333
1369,497.0,527.1666666666666
1370,521.0,527.4666666666667
1371,534.0,527.7
1372,519.0,527.6333333333333
1373,491.0,527.6666666666666
1374,501.0,527.2333333333333
1375,527.0,527.5666666666667
1376,532.0,527.6333333333333
1377,518.0,527.6
1378,493.0,527.3333333333334
1379,499.0,526.7666666666667
1380,523.0,526.8
1381,532.0,526.6666666666666
1382,512.0,526.4
1383,486.0,526.4
1384,491.0,526.4
1385,520.0,526.3
1386,533.0,526.2666666666667
1387,516.0,526.2666666666667
1388,487.0,526.2666666666667
1389,490.0,526.3
1390,512.0,526.0666666666667
1391,534.0,526.1
1392,524.0,526.2333333333333
1393,498.0,526.2
1394,491.0,526.2
1395,508.0,526.2333333333333
1396,528.0,526.4
1397,519.0,526.4333333333333
1398,487.0,526.5666666666667
1399,493.0,526.7
1400,521.0,526.7
1401,548.0,527.1666666666666
1402,525.0,527.3666666666667
1403,498.0,527.1333333333333
1404,494.0,527.3666666666667
1405,517.0,527.0333333333333
1406,530.0,526.9666666666667
1407,518.0,526.9666666666667
1408,492.0,527.0
1409,485.0,527.4666666666667
1410,507.0,527.2666666666667
1411,522.0,526.9333333333333
1412,514.0,527.0
1413,494.0,526.7333333333333
1414,491.0,526.7333333333333
1415,514.0,526.5333333333333
1416,527.0,526.3333333333334
1417,520.0,526.4666666666667
1418,491.0,526.3333333333334
1419,491.0,526.3
1420,519.0,526.5333333333333
1421,536.0,526.6
1422,520.0,526.4666666666667
1423,491.0,526.7
1424,494.0,526.6
1425,518.0,526.6666666666666
1426,530.0,526.7333333333333
1427,525.0,526.9333333333333
1428,499.0,526.5333333333333
1429,499.0,526.3333333333334
1430,521.0,526.3333333333334
1431,531.0,525.7666666666667
1432,516.0,525.4666666666667
1433,495.0,525.5666666666667
1434,489.0,525.7333333333333
1435,519.0,525.8
1436,533.0,525.9
1437,523.0,526.0666666666667
1438,500.0,525.8
1439,498.0,525.3666666666667
1440,513.0,525.2333333333333
1441,524.0,525.3
1442,515.0,525.3333333333334
1443,498.0,525.2
1444,502.0,524.8333333333334
1445,527.0,525.2666666666667
1446,534.0,525.5
1447,514.0,525.3
1448,485.0,525.5
1449,488.0,525.6
1450,514.0,525.4333333333333
1451,532.0,525.3
1452,524.0,525.4333333333333
1453,493.0,525.3666666666667
1454,485.0,525.6666666666666
1455,520.0,525.7333333333333
1456,543.0,526.1666666666666
1457,525.0,526.1666666666666
1458,494.0,526.3333333333334
1459,490.0,526.6333333333333
1460,516.0,526.4666666666667
1461,530.0,526.4333333333333
1462,515.0,526.4
1463,492.0,526.5
1464,491.0,526.4333333333333
1465,517.0,526.3666666666667
1466,537.0,526.5
1467,525.0,526.5666666666667
1468,498.0,526.6333333333333
1469,490.0,526.9
1470,507.0,527.0333333333333
1471,522.0,526.9666666666667
1472,515.0,526.9666666666667
1473,490.0,527.2333333333333
1474,497.0,527.4
1475,525.0,527.3333333333334
1476,535.0,527.3666666666667
1477,515.0,527.4
1478,493.0,527.1333333333333
1479,493.0,526.9666666666667
1480,512.0,526.9
1481,527.0,526.7333333333333
1482,519.0,526.5666666666667
1483,504.0,526.2
1484,495.0,525.8666666666667
1485,514.0,525.6666666666666
1486,528.0,525.1666666666666
1487,522.0,525.0666666666667
1488,493.0,525.1
1489,489.0,525.1333333333333
1490,518.0,525.2
1491,532.0,525.2666666666667
1492,516.0,525.3
1493,491.0,525.3333333333334
1494,484.0,525.5666666666667
1495,505.0,525.6333333333333
1496,531.0,525.4333333333333
1497,525.0,525.4333333333333
1498,503.0,525.2666666666667
1499,501.0,524.9
1500,518.0,524.9333333333333
1501,526.0,525.0666666666667
1502,508.0,525.1
1503,488.0,525.1666666666666
1504,497.0,525.1666666666666
1505,521.0,525.0333333333333
1506,531.0,524.9
1507,525.0,525.2333333333333
1508,496.0,525.1333333333333
1509,490.0,525.2333333333333
1510,506.0,525.4333333333333
1511,503.0,525.2333333333333
1512,511.0,525.0333333333333
1513,514.0,524.8333333333334
1514,511.0,524.3
1515,528.0,524.7666666666667
1516,538.0,525.1
1517,523.0,525.1333333333333
1518,494.0,525.1
1519,489.0,525.1
1520,516.0,525.0333333333333
1521,529.0,524.9333333333333
1522,512.0,524.8
1523,481.0,525.1333333333333
1524,483.0,525.1666666666666
1525,520.0,525.2
1526,531.0,525.2
1527,520.0,525.0333333333333
1528,495.0,525.3
1529,494.0,525.5333333333333
1530,513.0,525.3666666666667
1531,532.0,525.5666666666667
1532,528.0,525.9666666666667
1533,506.0,525.3666666666667
1534,497.0,525.3666666666667
1535,514.0,525.1333333333333
1536,526.0,524.9666666666667
1537,515.0,524.6333333333333
1538,495.0,524.6666666666666
1539,490.0,524.6666666666666
1540,503.0,524.7666666666667
1541,527.0,524.9666666666667
1542,520.0,525.2
1543,499.0,525.5666666666667
1544,495.0,526.1
1545,515.0,525.6666666666666
1546,522.0,525.1333333333333
1547,512.0,524.7666666666667
1548,491.0,524.8666666666667
1549,493.0,524.7333333333333
1550,520.0,524.8666666666667
1551,531.0,524.9333333333333
1552,506.0,525.1333333333333
1553,490.0,524.8333333333334
1554,493.0,524.5
1555,525.0,524.6666666666666
1556,540.0,524.9666666666667
1557,521.0,525.0
1558,500.0,524.8333333333334
1559,496.0,524.7666666666667
1560,517.0,524.9
1561,524.0,524.6333333333333
1562,508.0,524.2333333333333
1563,495.0,524.6
1564,494.0,524.7
1565,525.0,525.0666666666667
1566,536.0,525.4
1567,526.0,525.7666666666667
1568,498.0,525.6666666666666
1569,494.0,525.5333333333333
1570,513.0,525.2666666666667
1571,527.0,525.2666666666667
1572,520.0,525.2666666666667
1573,503.0,525.1333333333333
1574,497.0,525.0666666666667
1575,520.0,525.2333333333333
1576,529.0,525.4666666666667
1577,515.0,525.5666666666667
1578,497.0,525.3666666666667
1579,499.0,525.1666666666666
1580,520.0,525.1666666666666
1581,520.0,524.8
1582,489.0,525.3666666666667
1583,478.0,525.7666666666667
1584,505.0,525.3666666666667
1585,536.0,525.7333333333333
1586,536.0,525.6
1587,514.0,525.3666666666667
1588,493.0,525.6
1589,503.0,525.3666666666667
1590,519.0,525.4333333333333
1591,525.0,525.4666666666667
1592,512.0,525.3333333333334
1593,495.0,525.3333333333334
1594,502.0,525.0666666666667
1595,521.0,524.9333333333333
1596,530.0,524.7333333333333
1597,520.0,524.5333333333333
1598,498.0,524.5333333333333
1599,495.0,524.5
1600,512.0,524.4666666666667
1601,516.0,524.1
1602,513.0,523.8666666666667
1603,502.0,523.9
1604,498.0,523.8666666666667
1605,518.0,523.8
1606,522.0,523.5666666666667
1607,505.0,523.7
1608,495.0,523.7666666666667
1609,503.0,523.6333333333333
1610,523.0,523.7333333333333
1611,529.0,524.0333333333333
1612,517.0,523.4333333333333
1613,503.0,522.6
1614,503.0,522.6666666666666
1615,515.0,521.9666666666667
1616,520.0,521.4333333333333
1617,516.0,521.5
1618,497.0,521.3666666666667
1619,495.0,521.6333333333333
1620,511.0,521.4333333333333
1621,522.0,521.3333333333334
1622,514.0,521.4
1623,496.0,521.3666666666667
1624,497.0,521.5333333333333
1625,517.0,521.4
1626,523.0,521.1666666666666
1627,512.0,520.9
1628,497.0,520.9333333333333
1629,490.0,521.1
1630,511.0,521.1333333333333
1631,529.0,521.5666666666667
1632,519.0,521.7666666666667
1633,498.0,521.9
1634,501.0,521.8
1635,515.0,521.7
1636,524.0,521.7666666666667
1637,513.0,521.5666666666667
1638,494.0,521.6
1639,497.0,521.8
1640,521.0,521.7333333333333
1641,526.0,521.6333333333333
1642,514.0,521.5333333333333
1643,493.0,521.8666666666667
1644,492.0,522.2333333333333
1645,508.0,522.2666666666667
1646,521.0,522.3
1647,503.0,522.4666666666667
1648,503.0,522.2666666666667
1649,514.0,521.7666666666667
1650,526.0,522.2
1651,529.0,522.4333333333333
1652,516.0,522.5
1653,498.0,522.4333333333333
1654,504.0,522.2
1655,522.0,522.3666666666667
1656,524.0,522.4
1657,511.0,522.4333333333333
1658,493.0,522.5666666666667
1659,489.0,522.6
1660,506.0,522.7666666666667
1661,517.0,522.3666666666667
1662,517.0,522.3
1663,501.0,522.2
1664,504.0,522.1
1665,517.0,522.1666666666666
1666,523.0,522.1333333333333
1667,511.0,522.1333333333333
1668,489.0,522.3
1669,500.0,522.2
1670,524.0,522.3
1671,527.0,522.3333333333334
1672,520.0,522.5333333333333
1673,503.0,522.2
1674,497.0,522.0333333333333
1675,513.0,521.9333333333333
1676,524.0,522.0333333333333
1677,513.0,521.7666666666667
1678,499.0,521.9
1679,493.0,522.4666666666667
1680,501.0,522.3666666666667
1681,523.0,522.1666666666666
1682,525.0,522.4666666666667
1683,504.0,522.2666666666667
1684,499.0,522.4333333333333
1685,516.0,522.2333333333333
1686,525.0,522.2666666666667
1687,510.0,522.3
1688,495.0,522.2333333333333
1689,499.0,521.9
1690,518.0,521.9
1691,530.0,522.3333333333334
1692,516.0,522.3
1693,499.0,522.3666666666667
1694,500.0,522.5
1695,508.0,522.4666666666667
1696,511.0,522.1333333333333
1697,504.0,522.3666666666667
1698,502.0,521.9333333333333
1699,510.0,521.6
1700,525.0,521.6333333333333
1701,530.0,521.7333333333333
1702,511.0,521.5
1703,489.0,521.9666666666667
1704,496.0,522.0
1705,517.0,522.1333333333333
1706,528.0,522.2666666666667
1707,513.0,522.2666666666667
1708,494.0,522.4333333333333
1709,496.0,522.3333333333334
1710,516.0,522.1
1711,525.0,522.1666666666666
1712,514.0,521.8
1713,502.0,521.8666666666667
1714,503.0,521.7333333333333
1715,521.0,521.9
1716,525.0,521.9
1717,511.0,521.8666666666667
1718,496.0,521.8333333333334
1719,494.0,522.0
1720,510.0,521.8666666666667
1721,521.0,521.5666666666667
1722,517.0,521.6
1723,502.0,521.5
1724,502.0,521.4333333333333
1725,523.0,521.6666666666666
1726,534.0,522.3666666666667
1727,518.0,522.3
1728,499.0,522.4
1729,500.0,522.7333333333333
1730,516.0,522.4333333333333
1731,522.0,522.1666666666666
1732,510.0,522.2
1733,493.0,522.0666666666667
1734,495.0,522.1
1735,517.0,522.1
1736,536.0,522.3666666666667
1737,523.0,522.7
1738,484.0,523.0333333333333
1739,472.0,523.8333333333334
1740,508.0,523.8333333333334
1741,531.0,524.0333333333333
1742,528.0,524.5
1743,512.0,524.1666666666666
1744,511.0,523.9
1745,526.0,524.0666666666667
1746,526.0,524.1
1747,503.0,524.3666666666667
1748,471.0,525.2
1749,494.0,525.2
