Action_Label,lifting_cup_7s
Fs_Hz,250
Total_Samples,1750

Sample_Index,Raw_EMG,Envelope
0,514.0,517.5333333333333
1,511.0,517.0666666666667
2,503.0,517.3666666666667
3,510.0,517.2
4,518.0,517.0666666666667
5,509.0,517.0666666666667
6,501.0,517.1333333333333
7,502.0,517.0666666666667
8,509.0,517.0
9,504.0,517.0333333333333
10,515.0,517.1
11,501.0,517.0
12,514.0,516.7666666666667
13,508.0,516.7333333333333
14,530.0,517.3
15,521.0,517.5333333333333
16,516.0,517.3666666666667
17,507.0,517.4666666666667
18,517.0,517.5666666666667
19,523.0,517.7666666666667
20,518.0,517.9
21,503.0,518.0
22,495.0,518.5
23,511.0,518.5333333333333
24,523.0,518.7
25,510.0,518.4666666666667
26,498.0,518.8
27,498.0,519.2333333333333
28,503.0,519.4
29,519.0,519.2333333333333
30,511.0,519.2
31,507.0,519.3333333333334
32,505.0,519.2666666666667
33,516.0,519.3333333333334
34,520.0,519.4
35,513.0,519.3333333333334
36,493.0,519.6
37,492.0,519.9333333333333
38,517.0,520.0
39,527.0,520.2333333333333
40,520.0,520.4
41,499.0,520.4666666666667
42,504.0,520.6666666666666
43,519.0,520.7666666666667
44,521.0,520.4666666666667
45,513.0,520.2
46,508.0,520.2
47,506.0,520.2333333333333
48,513.0,520.1
49,513.0,519.7666666666667
50,505.0,519.8
51,508.0,519.6333333333333
52,509.0,519.1666666666666
53,518.0,519.3333333333334
54,520.0,519.2333333333333
55,503.0,519.4666666666667
56,498.0,519.4666666666667
57,503.0,519.3
58,513.0,519.0333333333333
59,522.0,519.1333333333333
60,516.0,519.2333333333333
61,499.0,519.5
62,502.0,519.6
63,516.0,519.6
64,522.0,519.6666666666666
65,517.0,519.8
66,499.0,519.6
67,502.0,519.2666666666667
68,515.0,519.2
69,520.0,518.9666666666667
70,512.0,518.7
71,499.0,518.7
72,503.0,518.7333333333333
73,498.0,518.9666666666667
74,522.0,519.0
75,510.0,519.0333333333333
76,495.0,519.4666666666667
77,509.0,519.3666666666667
78,520.0,519.6
79,522.0,519.9
80,520.0,519.9333333333333
81,506.0,520.0
82,507.0,520.0666666666667
83,518.0,520.0666666666667
84,522.0,520.1333333333333
85,512.0,519.8333333333334
86,506.0,519.5666666666667
87,506.0,519.4666666666667
88,516.0,519.5666666666667
89,523.0,519.6
90,514.0,519.5333333333333
91,502.0,519.4333333333333
92,503.0,519.4
93,511.0,519.3
94,521.0,519.2666666666667
95,511.0,519.1333333333333
96,494.0,519.3
97,505.0,519.2
98,513.0,519.1333333333333
99,520.0,519.1333333333333
100,515.0,519.2333333333333
101,504.0,519.0666666666667
102,499.0,519.2
103,510.0,518.8
104,511.0,518.5
105,508.0,518.5666666666667
106,509.0,518.1
107,508.0,518.1333333333333
108,516.0,518.0
109,516.0,517.8
110,519.0,517.7666666666667
111,509.0,517.6666666666666
112,505.0,517.7333333333333
113,511.0,517.5666666666667
114,519.0,517.4666666666667
115,515.0,517.5666666666667
116,507.0,517.5333333333333
117,502.0,517.6666666666666
118,498.0,518.0
119,519.0,517.8666666666667
120,519.0,518.0333333333333
121,506.0,517.9
122,504.0,517.8666666666667
123,514.0,517.9
124,518.0,517.8
125,512.0,517.7666666666667
126,499.0,517.6
127,503.0,517.6666666666666
128,508.0,517.7666666666667
129,523.0,517.8666666666667
130,517.0,517.9333333333333
131,501.0,518.0333333333333
132,502.0,517.9333333333333
133,520.0,518.1333333333333
134,528.0,518.6333333333333
135,523.0,518.8666666666667
136,503.0,519.0666666666667
137,506.0,519.1333333333333
138,508.0,519.1333333333333
139,524.0,519.4
140,519.0,519.4
141,505.0,519.5333333333333
142,494.0,519.9
143,513.0,519.9
144,527.0,520.1666666666666
145,518.0,520.2666666666667
146,505.0,520.3333333333334
147,507.0,520.1666666666666
148,519.0,519.9333333333333
149,526.0,520.1666666666666
150,514.0,520.0
151,499.0,520.2333333333333
152,498.0,520.4333333333333
153,517.0,520.5333333333333
154,528.0,520.8666666666667
155,509.0,520.9666666666667
156,503.0,520.8333333333334
157,505.0,520.7666666666667
158,510.0,520.7
159,512.0,520.3333333333334
160,523.0,520.5333333333333
161,507.0,520.3333333333334
162,505.0,520.2333333333333
163,516.0,520.1
164,520.0,519.8333333333334
165,515.0,519.5666666666667
166,502.0,519.6
167,502.0,519.7333333333333
168,513.0,519.6333333333333
169,523.0,519.6
170,514.0,519.4333333333333
171,494.0,519.8
172,488.0,520.0
173,516.0,520.1
174,531.0,520.2333333333333
175,519.0,520.2666666666667
176,495.0,520.6
177,503.0,520.7333333333333
178,519.0,520.7333333333333
179,516.0,520.4
180,513.0,520.3666666666667
181,498.0,520.4
182,502.0,520.2666666666667
183,518.0,520.3
184,527.0,520.2666666666667
185,518.0,520.3666666666667
186,505.0,520.3
187,502.0,520.4
188,509.0,520.4333333333333
189,513.0,520.4666666666667
190,504.0,520.3666666666667
191,502.0,520.5333333333333
192,503.0,520.6
193,507.0,520.6333333333333
194,522.0,520.7
195,520.0,520.8666666666667
196,505.0,520.7666666666667
197,506.0,520.6333333333333
198,512.0,520.6
199,514.0,520.3
200,515.0,520.3333333333334
201,496.0,520.2666666666667
202,503.0,519.7666666666667
203,516.0,519.7666666666667
204,522.0,519.4666666666667
205,516.0,519.3666666666667
206,501.0,519.1666666666666
207,509.0,518.9666666666667
208,518.0,518.9333333333333
209,524.0,519.2
210,516.0,519.3
211,503.0,519.1333333333333
212,502.0,519.1333333333333
213,515.0,519.0333333333333
214,519.0,518.7666666666667
215,512.0,518.5666666666667
216,498.0,518.8
217,490.0,519.2
218,513.0,519.1333333333333
219,523.0,519.4666666666667
220,515.0,519.3
221,507.0,519.1333333333333
222,490.0,519.5666666666667
223,508.0,519.5333333333333
224,524.0,519.6
225,519.0,519.5666666666667
226,507.0,519.5
227,505.0,519.5333333333333
228,513.0,519.5666666666667
229,520.0,519.7666666666667
230,516.0,519.8
231,499.0,519.7
232,494.0,520.0
233,508.0,520.0
234,520.0,519.9333333333333
235,516.0,519.9333333333333
236,507.0,519.7333333333333
237,507.0,519.8
238,518.0,519.8
239,525.0,519.8333333333334
240,513.0,519.7333333333333
241,499.0,519.8666666666667
242,504.0,519.8
243,515.0,519.8
244,514.0,519.6333333333333
245,510.0,519.7
246,502.0,519.5666666666667
247,505.0,519.0666666666667
248,516.0,519.1666666666666
249,517.0,518.9666666666667
250,516.0,519.0
251,511.0,518.8666666666667
252,509.0,518.2333333333333
253,523.0,518.4666666666667
254,528.0,518.6
255,517.0,518.5333333333333
256,505.0,518.6
257,501.0,518.7333333333333
258,513.0,518.7333333333333
259,527.0,518.9666666666667
260,516.0,518.9666666666667
261,500.0,518.9333333333333
262,501.0,518.7
263,513.0,518.6
264,525.0,518.7666666666667
265,522.0,518.9666666666667
266,510.0,518.8666666666667
267,507.0,518.8666666666667
268,517.0,518.8333333333334
269,521.0,518.7
270,503.0,518.9666666666667
271,501.0,518.9
272,502.0,518.9666666666667
273,513.0,518.9
274,521.0,519.1333333333333
275,505.0,519.3
276,501.0,519.3333333333334
277,501.0,519.4666666666667
278,516.0,519.4666666666667
279,522.0,519.6333333333333
280,516.0,519.6333333333333
281,503.0,519.9
282,503.0,520.1
283,512.0,519.7333333333333
284,517.0,519.3666666666667
285,511.0,519.2333333333333
286,497.0,519.5
287,501.0,519.5
288,508.0,519.6
289,525.0,519.5333333333333
290,515.0,519.5
291,500.0,519.5
292,499.0,519.5666666666667
293,510.0,519.6
294,519.0,519.4
295,517.0,519.2333333333333
296,503.0,519.4666666666667
297,491.0,520.0
298,507.0,520.0
299,524.0,520.1
300,522.0,520.1333333333333
301,506.0,519.9666666666667
302,505.0,519.8666666666667
303,513.0,519.8666666666667
304,511.0,519.6
305,514.0,519.4333333333333
306,507.0,519.2333333333333
307,502.0,519.2
308,512.0,519.0666666666667
309,521.0,519.0333333333333
310,511.0,518.9333333333333
311,501.0,519.0
312,500.0,519.1
313,501.0,519.4666666666667
314,515.0,519.4
315,521.0,519.6666666666666
316,508.0,519.3
317,505.0,519.1666666666666
318,513.0,519.0666666666667
319,519.0,518.8666666666667
320,513.0,518.8
321,503.0,518.7
322,498.0,518.7333333333333
323,517.0,518.8333333333334
324,524.0,519.0
325,512.0,518.8333333333334
326,502.0,518.8666666666667
327,503.0,518.4666666666667
328,513.0,518.3333333333334
329,517.0,518.1
330,518.0,517.9666666666667
331,507.0,517.9333333333333
332,504.0,517.9666666666667
333,512.0,517.9333333333333
334,521.0,518.2
335,518.0,518.3333333333334
336,500.0,518.5666666666667
337,499.0,518.6666666666666
338,506.0,518.8666666666667
339,521.0,518.8666666666667
340,514.0,518.9
341,502.0,518.8666666666667
342,499.0,518.9
343,510.0,518.6
344,513.0,518.5333333333333
345,523.0,518.6
346,514.0,518.5333333333333
347,508.0,518.4333333333333
348,519.0,518.6333333333333
349,527.0,518.9
350,518.0,519.0666666666667
351,504.0,519.0333333333333
352,501.0,518.9333333333333
353,516.0,518.9
354,522.0,518.8333333333334
355,514.0,518.9
356,503.0,518.8666666666667
357,505.0,518.8
358,513.0,518.8
359,523.0,519.0
360,512.0,518.8
361,499.0,519.0666666666667
362,500.0,519.2
363,509.0,519.3
364,519.0,519.2333333333333
365,513.0,519.0666666666667
366,497.0,519.1666666666666
367,496.0,519.2666666666667
368,509.0,519.1666666666666
369,515.0,518.9666666666667
370,509.0,519.0
371,507.0,518.8333333333334
372,505.0,518.6333333333333
373,510.0,518.6333333333333
374,519.0,518.8333333333334
375,518.0,518.6666666666666
376,513.0,518.6333333333333
377,506.0,518.7
378,514.0,518.5333333333333
379,519.0,518.2666666666667
380,519.0,518.3
381,503.0,518.3333333333334
382,504.0,518.2333333333333
383,512.0,518.1
384,518.0,517.9666666666667
385,515.0,518.0
386,502.0,518.0333333333333
387,498.0,518.2666666666667
388,508.0,518.3666666666667
389,517.0,518.1666666666666
390,512.0,518.1666666666666
391,502.0,518.0666666666667
392,510.0,517.7333333333333
393,506.0,517.8333333333334
394,513.0,517.6333333333333
395,511.0,517.6333333333333
396,498.0,517.6
397,497.0,517.5666666666667
398,509.0,517.5666666666667
399,521.0,517.7666666666667
400,518.0,517.8666666666667
401,506.0,517.9
402,504.0,517.9333333333333
403,513.0,517.9
404,528.0,518.2
405,523.0,518.3666666666667
406,510.0,518.4
407,505.0,518.4333333333333
408,512.0,518.3666666666667
409,521.0,518.4333333333333
410,522.0,518.5333333333333
411,511.0,518.2666666666667
412,510.0,518.0666666666667
413,516.0,518.2
414,516.0,518.1333333333333
415,520.0,518.3
416,519.0,518.2
417,514.0,517.8
418,510.0,517.7333333333333
419,529.0,518.1333333333333
420,532.0,518.8
421,518.0,518.6666666666666
422,512.0,518.6
423,520.0,518.6666666666666
424,534.0,519.3666666666667
425,529.0,519.9
426,515.0,519.5333333333333
427,513.0,519.0666666666667
428,516.0,519.1
429,520.0,519.0666666666667
430,518.0,519.0666666666667
431,502.0,519.2
432,494.0,519.5333333333333
433,493.0,520.1333333333333
434,499.0,520.0333333333333
435,499.0,520.1
436,476.0,521.2333333333333
437,455.0,522.9
438,433.0,525.5333333333333
439,406.0,528.7666666666667
440,395.0,532.3333333333334
441,376.0,536.8333333333334
442,368.0,541.5666666666667
443,366.0,546.3
444,375.0,550.7333333333333
445,375.0,555.0333333333333
446,353.0,560.1
447,336.0,565.9
448,326.0,572.0333333333333
449,333.0,577.4333333333334
450,325.0,583.0
451,308.0,589.6
452,289.0,597.0333333333333
453,289.0,604.2
454,295.0,610.7
455,295.0,617.3666666666667
456,284.0,624.8666666666667
457,278.0,632.6333333333333
458,273.0,640.4666666666667
459,256.0,648.7333333333333
460,234.0,657.8
461,218.0,667.2666666666667
462,222.0,676.3333333333334
463,243.0,684.6666666666666
464,264.0,692.5
465,271.0,700.1
466,250.0,707.6333333333333
467,228.0,715.2
468,225.0,722.1333333333333
469,243.0,727.5666666666666
470,231.0,733.0333333333333
471,227.0,738.0
472,232.0,742.5333333333333
473,247.0,746.5
474,260.0,750.3333333333334
475,260.0,754.1666666666666
476,256.0,757.4
477,274.0,759.4666666666667
478,301.0,760.3
479,327.0,760.5
480,332.0,760.2666666666667
481,332.0,759.4666666666667
482,344.0,757.6333333333333
483,372.0,754.8666666666667
484,398.0,751.4333333333334
485,401.0,747.9
486,374.0,744.9
487,409.0,740.5333333333333
488,452.0,734.5666666666666
489,474.0,727.3
490,476.0,719.2333333333333
491,469.0,710.8666666666667
492,482.0,702.2
493,502.0,693.5666666666666
494,517.0,685.4666666666667
495,509.0,677.5333333333333
496,502.0,669.1333333333333
497,523.0,660.0333333333333
498,546.0,651.6
499,555.0,644.0666666666666
500,540.0,635.6333333333333
501,535.0,626.9
502,546.0,618.7
503,581.0,612.1666666666666
504,601.0,606.7333333333333
505,591.0,600.9666666666667
506,597.0,595.2666666666667
507,635.0,591.4333333333334
508,680.0,590.0
509,698.0,590.0333333333333
510,687.0,589.8666666666667
511,670.0,589.1333333333333
512,685.0,589.3
513,700.0,590.9
514,695.0,593.2
515,650.0,594.1
516,594.0,592.2333333333333
517,633.0,592.8333333333334
518,664.0,595.9
519,659.0,599.5333333333333
520,604.0,601.4
521,533.0,600.6666666666666
522,538.0,600.5333333333333
523,553.0,601.5666666666666
524,542.0,602.4
525,503.0,602.6
526,466.0,603.8
527,467.0,604.9333333333334
528,509.0,603.9
529,504.0,602.7333333333333
530,476.0,603.0
531,443.0,604.5333333333333
532,490.0,604.1333333333333
533,498.0,602.3
534,498.0,599.8
535,501.0,597.5333333333333
536,507.0,594.8666666666667
537,546.0,591.9
538,582.0,588.6333333333333
539,573.0,584.4666666666667
540,528.0,579.1666666666666
541,512.0,573.9
542,568.0,570.0
543,606.0,566.8666666666667
544,592.0,563.4333333333333
545,542.0,559.8333333333334
546,540.0,558.0333333333333
547,576.0,556.1333333333333
548,608.0,554.2666666666667
549,591.0,552.0
550,551.0,550.2333333333333
551,524.0,549.9333333333333
552,572.0,551.0666666666667
553,602.0,552.7
554,617.0,555.2
555,571.0,556.8666666666667
556,570.0,557.2666666666667
557,605.0,558.8666666666667
558,634.0,562.8333333333334
559,622.0,566.2333333333333
560,578.0,567.2333333333333
561,559.0,566.5
562,590.0,568.3666666666667
563,625.0,571.6666666666666
564,629.0,575.1
565,590.0,577.3333333333334
566,584.0,579.5666666666666
567,631.0,582.4
568,678.0,585.6
569,676.0,589.0333333333333
570,630.0,592.4333333333334
571,610.0,595.7
572,648.0,598.3666666666667
573,688.0,601.1
574,667.0,603.6
575,605.0,605.7
576,592.0,607.4333333333334
577,632.0,609.3
578,662.0,611.1
579,654.0,613.2
580,615.0,615.3333333333334
581,599.0,617.8333333333334
582,617.0,619.3333333333334
583,650.0,620.9333333333334
584,652.0,622.1
585,591.0,622.7666666666667
586,568.0,622.7
587,601.0,622.5666666666666
588,640.0,622.7666666666667
589,638.0,623.3
590,590.0,623.7
591,565.0,623.9
592,588.0,623.8333333333334
593,610.0,623.3333333333334
594,600.0,622.3666666666667
595,545.0,620.8666666666667
596,538.0,619.3333333333334
597,582.0,617.7
598,623.0,615.8666666666667
599,619.0,613.9666666666667
600,572.0,612.0333333333333
601,564.0,610.5
602,596.0,608.7666666666667
603,646.0,607.3666666666667
604,642.0,606.5333333333333
605,582.0,605.7666666666667
606,568.0,604.9666666666667
607,606.0,604.1
608,640.0,603.3666666666667
609,631.0,602.6
610,580.0,601.4333333333334
611,564.0,600.2666666666667
612,589.0,599.3333333333334
613,633.0,598.7666666666667
614,627.0,597.9333333333334
615,578.0,597.5
616,558.0,597.1666666666666
617,591.0,596.8333333333334
618,621.0,596.2
619,614.0,595.4
620,567.0,594.6333333333333
621,549.0,594.1
622,581.0,593.8666666666667
623,615.0,594.0333333333333
624,607.0,594.2666666666667
625,557.0,594.6666666666666
626,527.0,594.3
627,551.0,593.2666666666667
628,587.0,592.0666666666666
629,587.0,591.0
630,552.0,590.3333333333334
631,531.0,589.2333333333333
632,559.0,588.0
633,583.0,585.9
634,574.0,583.6333333333333
635,528.0,581.8333333333334
636,510.0,580.0333333333333
637,549.0,578.1333333333333
638,584.0,576.2666666666667
639,572.0,574.3
640,524.0,572.4333333333333
641,508.0,570.8333333333334
642,540.0,569.2
643,573.0,567.2
644,560.0,564.9666666666667
645,511.0,562.8
646,497.0,561.7666666666667
647,534.0,559.8666666666667
648,563.0,557.9333333333333
649,559.0,556.1
650,518.0,554.4666666666667
651,505.0,553.4666666666667
652,523.0,551.5333333333333
653,553.0,549.4666666666667
654,555.0,547.7333333333333
655,520.0,546.5
656,510.0,546.0666666666667
657,544.0,545.8333333333334
658,575.0,545.4333333333333
659,569.0,544.8333333333334
660,531.0,544.1333333333333
661,520.0,543.7666666666667
662,545.0,543.3
663,569.0,542.8333333333334
664,568.0,542.6333333333333
665,535.0,542.8666666666667
666,522.0,543.1333333333333
667,548.0,543.1
668,573.0,542.7333333333333
669,564.0,542.4666666666667
670,531.0,542.7
671,520.0,542.8333333333334
672,544.0,542.9666666666667
673,567.0,542.7666666666667
674,560.0,542.7666666666667
675,523.0,543.1
676,507.0,542.7666666666667
677,536.0,542.8333333333334
678,568.0,543.0
679,564.0,543.1666666666666
680,530.0,543.5666666666667
681,510.0,543.4
682,537.0,543.8666666666667
683,557.0,544.0
684,548.0,543.7666666666667
685,526.0,543.9666666666667
686,520.0,544.1666666666666
687,544.0,544.1666666666666
688,561.0,543.7
689,550.0,543.0666666666667
690,511.0,542.4666666666667
691,472.0,543.5333333333333
692,500.0,542.8333333333334
693,533.0,541.6333333333333
694,542.0,540.7666666666667
695,513.0,540.0333333333333
696,496.0,540.2333333333333
697,520.0,539.3
698,551.0,538.5666666666667
699,545.0,537.9333333333333
700,516.0,537.4333333333333
701,489.0,537.9333333333333
702,506.0,537.0666666666667
703,532.0,535.9
704,530.0,534.9
705,502.0,534.8666666666667
706,489.0,535.4666666666667
707,509.0,534.7666666666667
708,528.0,533.4333333333333
709,521.0,532.0
710,494.0,532.0
711,478.0,533.0666666666667
712,493.0,532.8666666666667
713,515.0,531.4666666666667
714,517.0,530.4333333333333
715,502.0,530.3
716,504.0,530.3
717,535.0,530.0
718,565.0,530.1333333333333
719,563.0,530.5666666666667
720,539.0,531.4333333333333
721,530.0,530.7
722,551.0,531.6
723,557.0,532.4
724,541.0,532.3666666666667
725,515.0,532.4333333333333
726,502.0,532.2333333333333
727,507.0,532.1333333333333
728,513.0,530.8666666666667
729,518.0,529.9666666666667
730,513.0,529.8666666666667
731,504.0,529.3666666666667
732,517.0,529.3333333333334
733,530.0,529.2666666666667
734,522.0,529.0
735,501.0,529.0333333333333
736,492.0,528.9333333333333
737,508.0,528.9666666666667
738,524.0,528.8333333333334
739,509.0,528.6333333333333
740,489.0,528.8
741,481.0,528.7
742,494.0,528.6666666666666
743,525.0,529.0
744,530.0,529.4333333333333
745,511.0,529.1333333333333
746,498.0,529.3333333333334
747,502.0,528.9
748,505.0,527.3666666666667
749,502.0,526.0
750,487.0,525.9333333333333
751,478.0,526.4666666666667
752,485.0,526.0666666666667
753,500.0,524.9666666666667
754,509.0,524.1
755,500.0,524.4
756,482.0,525.0666666666667
757,481.0,525.9333333333333
758,503.0,526.2
759,522.0,526.3333333333334
760,520.0,526.5666666666667
761,506.0,526.5
762,500.0,526.7333333333333
763,504.0,526.4
764,508.0,526.2
765,511.0,525.8666666666667
766,505.0,525.4333333333333
767,512.0,525.3
768,521.0,525.2
769,518.0,525.3
770,504.0,524.8
771,496.0,524.3
772,510.0,523.7666666666667
773,523.0,523.7
774,523.0,523.4666666666667
775,507.0,523.6
776,501.0,523.5
777,513.0,523.2
778,522.0,523.3
779,520.0,523.2333333333333
780,505.0,522.6333333333333
781,504.0,521.7666666666667
782,527.0,521.3666666666667
783,540.0,521.9
784,530.0,522.4
785,500.0,522.4
786,500.0,521.8
787,553.0,522.1333333333333
788,581.0,524.1333333333333
789,568.0,525.6666666666666
790,530.0,526.0
791,523.0,526.1666666666666
792,552.0,527.1
793,572.0,528.8333333333334
794,559.0,530.2666666666667
795,524.0,530.6333333333333
796,521.0,530.7
797,553.0,532.0666666666667
798,574.0,533.8333333333334
799,559.0,535.2
800,523.0,535.3
801,518.0,534.9666666666667
802,552.0,536.2333333333333
803,575.0,537.9666666666667
804,559.0,539.1666666666666
805,522.0,539.3333333333334
806,516.0,539.1
807,550.0,540.3333333333334
808,571.0,541.9666666666667
809,553.0,543.0666666666667
810,518.0,543.0333333333333
811,518.0,542.9666666666667
812,552.0,543.8
813,569.0,544.7666666666667
814,557.0,545.6666666666666
815,518.0,545.4666666666667
816,515.0,545.1666666666666
817,551.0,545.1
818,570.0,544.7333333333333
819,554.0,544.2666666666667
820,521.0,543.9666666666667
821,519.0,543.8333333333334
822,547.0,543.6666666666666
823,563.0,543.3666666666667
824,550.0,543.0666666666667
825,522.0,543.0
826,521.0,543.0
827,544.0,542.7
828,552.0,541.9666666666667
829,536.0,541.2
830,510.0,540.9
831,512.0,540.7
832,538.0,540.2333333333333
833,550.0,539.4
834,535.0,538.6
835,510.0,538.3333333333334
836,508.0,538.3333333333334
837,534.0,537.8
838,545.0,536.9333333333333
839,540.0,536.5
840,518.0,536.5
841,508.0,536.4333333333333
842,530.0,535.7
843,543.0,534.8333333333334
844,534.0,534.0666666666667
845,511.0,533.9
846,504.0,534.0666666666667
847,524.0,533.1666666666666
848,536.0,532.0333333333333
849,528.0,531.1666666666666
850,506.0,531.0666666666667
851,504.0,531.1
852,523.0,530.3
853,532.0,529.2666666666667
854,520.0,528.2666666666667
855,506.0,528.1333333333333
856,496.0,528.3666666666667
857,514.0,527.3666666666667
858,528.0,526.5666666666667
859,525.0,526.2
860,505.0,526.3666666666667
861,499.0,526.8
862,517.0,526.1
863,528.0,525.3666666666667
864,519.0,524.8333333333334
865,499.0,525.2
866,498.0,525.5333333333333
867,516.0,524.9333333333333
868,528.0,524.3666666666667
869,521.0,523.7333333333333
870,502.0,523.8666666666667
871,500.0,524.1333333333333
872,521.0,523.8333333333334
873,530.0,523.4
874,520.0,522.9333333333333
875,497.0,523.4
876,490.0,523.8666666666667
877,515.0,523.5666666666667
878,529.0,523.3333333333334
879,522.0,523.1333333333333
880,501.0,523.3
881,497.0,523.5333333333333
882,515.0,523.2666666666667
883,527.0,523.1
884,519.0,523.0666666666667
885,496.0,523.4
886,492.0,523.5333333333333
887,516.0,523.6
888,525.0,523.5
889,515.0,523.1666666666666
890,494.0,523.5333333333333
891,489.0,523.8666666666667
892,507.0,523.8666666666667
893,523.0,523.7
894,518.0,523.6666666666666
895,495.0,523.8
896,487.0,524.1666666666666
897,505.0,524.2666666666667
898,517.0,523.9
899,515.0,523.7
900,495.0,523.9333333333333
901,490.0,524.2666666666667
902,513.0,524.0
903,523.0,523.7666666666667
904,512.0,523.5
905,487.0,523.8333333333334
906,483.0,524.0666666666667
907,506.0,524.1666666666666
908,521.0,523.9
909,506.0,523.7666666666667
910,485.0,524.3
911,483.0,524.7666666666667
912,501.0,525.0333333333333
913,511.0,524.5666666666667
914,526.0,524.8
915,500.0,524.6666666666666
916,491.0,524.7
917,511.0,524.6
918,528.0,524.7
919,519.0,524.8333333333334
920,493.0,524.8666666666667
921,484.0,525.0333333333333
922,501.0,525.2333333333333
923,521.0,525.1666666666666
924,514.0,525.0333333333333
925,489.0,525.2333333333333
926,481.0,525.4333333333333
927,504.0,525.4666666666667
928,519.0,525.5333333333333
929,513.0,525.4666666666667
930,488.0,525.7
931,483.0,525.9333333333333
932,508.0,526.0333333333333
933,515.0,525.7666666666667
934,503.0,526.0666666666667
935,483.0,526.2
936,472.0,526.5666666666667
937,501.0,526.7333333333333
938,521.0,526.7333333333333
939,511.0,526.5666666666667
940,487.0,526.5
941,471.0,526.9
942,504.0,526.8
943,520.0,527.0333333333333
944,515.0,526.6666666666666
945,489.0,527.0333333333333
946,482.0,527.3333333333334
947,505.0,527.5333333333333
948,522.0,527.3333333333334
949,514.0,527.1666666666666
950,489.0,527.3
951,482.0,527.3666666666667
952,502.0,527.3333333333334
953,521.0,527.3333333333334
954,509.0,527.3666666666667
955,476.0,527.8
956,472.0,528.1
957,498.0,528.3
958,517.0,528.2333333333333
959,513.0,528.2333333333333
960,482.0,528.4333333333333
961,481.0,528.5
962,502.0,528.7
963,518.0,528.8
964,504.0,528.7666666666667
965,477.0,528.9666666666667
966,480.0,528.7
967,507.0,528.5
968,523.0,528.5666666666667
969,511.0,528.5666666666667
970,482.0,528.7333333333333
971,476.0,528.5666666666667
972,497.0,528.8
973,512.0,528.5333333333333
974,512.0,528.4333333333333
975,480.0,528.7333333333333
976,474.0,529.0
977,502.0,529.1
978,520.0,529.0333333333333
979,505.0,529.2
980,487.0,529.2666666666667
981,484.0,529.2
982,505.0,529.1
983,522.0,529.1333333333333
984,512.0,529.0333333333333
985,487.0,528.6666666666666
986,481.0,528.3666666666667
987,503.0,528.2
988,518.0,528.2333333333333
989,506.0,528.4
990,484.0,528.3333333333334
991,479.0,528.4
992,502.0,528.4
993,520.0,528.4666666666667
994,508.0,528.3333333333334
995,484.0,528.1
996,482.0,528.0333333333333
997,500.0,528.2666666666667
998,518.0,528.1
999,510.0,528.1333333333333
1000,485.0,528.0333333333333
1001,480.0,527.9
1002,497.0,527.9
1003,515.0,528.0
1004,506.0,528.2
1005,485.0,528.0333333333333
1006,477.0,527.9333333333333
1007,498.0,528.0666666666667
1008,516.0,527.9333333333333
1009,510.0,527.7666666666667
1010,486.0,527.8
1011,478.0,528.0
1012,498.0,528.2333333333333
1013,517.0,528.0666666666667
1014,506.0,528.2666666666667
1015,480.0,528.5
1016,477.0,528.6333333333333
1017,500.0,528.7333333333333
1018,515.0,528.6333333333333
1019,508.0,528.5666666666667
1020,476.0,528.8333333333334
1021,476.0,528.9333333333333
1022,496.0,529.1333333333333
1023,515.0,528.9666666666667
1024,508.0,528.9666666666667
1025,485.0,528.9333333333333
1026,481.0,528.9666666666667
1027,500.0,528.9666666666667
1028,516.0,528.9
1029,510.0,528.9
1030,488.0,528.8
1031,485.0,528.6333333333333
1032,501.0,528.5
1033,513.0,528.4333333333333
1034,500.0,528.6333333333333
1035,475.0,528.9666666666667
1036,479.0,528.9
1037,504.0,528.7
1038,520.0,528.8333333333334
1039,510.0,528.8333333333334
1040,483.0,528.9333333333333
1041,477.0,528.9666666666667
1042,501.0,528.8666666666667
1043,522.0,529.0333333333333
1044,516.0,528.9666666666667
1045,485.0,528.8
1046,474.0,528.9
1047,493.0,529.1333333333333
1048,513.0,529.0666666666667
1049,510.0,529.0
1050,486.0,528.6666666666666
1051,483.0,528.4333333333333
1052,493.0,528.5333333333333
1053,512.0,528.4333333333333
1054,512.0,528.3
1055,489.0,528.1666666666666
1056,482.0,528.1333333333333
1057,501.0,528.1
1058,517.0,528.1333333333333
1059,512.0,528.0666666666667
1060,487.0,528.1
1061,479.0,528.3
1062,495.0,528.5
1063,512.0,528.4666666666667
1064,511.0,528.1
1065,491.0,527.5666666666667
1066,485.0,527.3666666666667
1067,505.0,527.3333333333334
1068,523.0,527.4333333333333
1069,510.0,527.4333333333333
1070,483.0,527.4333333333333
1071,476.0,527.4666666666667
1072,499.0,527.5333333333333
1073,519.0,527.4333333333333
1074,514.0,527.3666666666667
1075,490.0,527.2
1076,482.0,526.9333333333333
1077,500.0,526.7
1078,517.0,526.8333333333334
1079,512.0,526.7666666666667
1080,487.0,526.7333333333333
1081,479.0,526.8666666666667
1082,495.0,526.8
1083,515.0,526.9
1084,508.0,527.0333333333333
1085,482.0,527.2666666666667
1086,473.0,527.5666666666667
1087,496.0,527.7333333333333
1088,518.0,527.7666666666667
1089,512.0,527.7666666666667
1090,489.0,527.7
1091,482.0,527.6
1092,501.0,527.4
1093,518.0,527.6
1094,510.0,527.6333333333333
1095,489.0,527.7
1096,483.0,527.7666666666667
1097,503.0,527.8333333333334
1098,519.0,527.7
1099,508.0,527.7666666666667
1100,484.0,527.7333333333333
1101,478.0,527.6666666666666
1102,501.0,527.6
1103,517.0,527.5333333333333
1104,510.0,527.5333333333333
1105,486.0,527.6666666666666
1106,477.0,527.8333333333334
1107,496.0,527.9666666666667
1108,517.0,527.9666666666667
1109,512.0,527.9666666666667
1110,489.0,527.9
1111,479.0,527.9
1112,498.0,527.8
1113,515.0,527.8
1114,509.0,527.7666666666667
1115,490.0,527.5
1116,486.0,527.0666666666667
1117,506.0,526.7333333333333
1118,521.0,526.8333333333334
1119,511.0,526.8666666666667
1120,484.0,527.0333333333333
1121,480.0,527.1
1122,502.0,527.0666666666667
1123,519.0,527.1
1124,510.0,527.1
1125,483.0,527.3
1126,479.0,527.4333333333333
1127,502.0,527.4666666666667
1128,519.0,527.4666666666667
1129,510.0,527.4
1130,483.0,527.4333333333333
1131,477.0,527.4666666666667
1132,500.0,527.5
1133,518.0,527.5333333333333
1134,512.0,527.4666666666667
1135,487.0,527.4333333333333
1136,480.0,527.3333333333334
1137,501.0,527.1666666666666
1138,519.0,527.2333333333333
1139,514.0,527.3
1140,485.0,527.4333333333333
1141,484.0,527.2666666666667
1142,505.0,527.0333333333333
1143,520.0,527.2
1144,513.0,527.1333333333333
1145,490.0,527.1333333333333
1146,484.0,527.2
1147,505.0,527.2333333333333
1148,520.0,527.2
1149,513.0,527.2
1150,490.0,527.0
1151,480.0,527.0
1152,500.0,527.0666666666667
1153,519.0,527.0666666666667
1154,513.0,527.0333333333333
1155,490.0,526.8
1156,481.0,526.7333333333333
1157,502.0,526.7333333333333
1158,522.0,526.8333333333334
1159,513.0,526.8
1160,490.0,526.5666666666667
1161,484.0,526.3333333333334
1162,506.0,526.1333333333333
1163,522.0,526.2666666666667
1164,514.0,526.3333333333334
1165,489.0,526.2666666666667
1166,483.0,526.1666666666666
1167,502.0,526.1333333333333
1168,520.0,526.1666666666666
1169,515.0,526.2
1170,489.0,526.0666666666667
1171,486.0,526.0
1172,509.0,525.8666666666667
1173,524.0,526.0
1174,514.0,526.0333333333333
1175,488.0,526.1
1176,482.0,526.1666666666666
1177,504.0,526.2
1178,522.0,526.2666666666667
1179,516.0,526.3666666666667
1180,489.0,526.4
1181,480.0,526.4
1182,504.0,526.2666666666667
1183,526.0,526.5
1184,518.0,526.6666666666666
1185,489.0,526.7
1186,479.0,526.7666666666667
1187,503.0,526.7333333333333
1188,525.0,526.8333333333334
1189,519.0,527.0333333333333
1190,489.0,527.0666666666667
1191,478.0,527.2666666666667
1192,500.0,527.4666666666667
1193,521.0,527.4333333333333
1194,514.0,527.4333333333333
1195,486.0,527.5333333333333
1196,477.0,527.7333333333333
1197,502.0,527.7333333333333
1198,519.0,527.7
1199,510.0,527.6666666666666
1200,485.0,527.8
1201,480.0,528.0
1202,506.0,528.1
1203,526.0,528.1666666666666
1204,515.0,528.2
1205,487.0,528.2333333333333
1206,480.0,528.3
1207,504.0,528.3
1208,524.0,528.3666666666667
1209,516.0,528.3666666666667
1210,488.0,528.4
1211,481.0,528.3666666666667
1212,506.0,528.3
1213,526.0,528.3
1214,518.0,528.3
1215,491.0,528.2333333333333
1216,487.0,527.9666666666667
1217,510.0,527.7333333333333
1218,526.0,527.7666666666667
1219,520.0,527.8
1220,492.0,527.7
1221,477.0,527.7333333333333
1222,506.0,527.5333333333333
1223,529.0,527.8
1224,522.0,528.0666666666667
1225,497.0,527.7
1226,487.0,527.3666666666667
1227,505.0,527.2666666666667
1228,521.0,527.3333333333334
1229,515.0,527.3666666666667
1230,490.0,527.2
1231,485.0,527.0333333333333
1232,504.0,527.1
1233,521.0,526.9333333333333
1234,516.0,526.9666666666667
1235,496.0,526.6666666666666
1236,487.0,526.4333333333333
1237,504.0,526.4333333333333
1238,517.0,526.2
1239,515.0,526.1666666666666
1240,494.0,525.9666666666667
1241,486.0,525.8
1242,502.0,525.9333333333333
1243,521.0,525.7666666666667
1244,520.0,525.8333333333334
1245,501.0,525.5
1246,490.0,525.4
1247,502.0,525.6666666666666
1248,521.0,525.5
1249,520.0,525.5
1250,501.0,525.2
1251,493.0,524.6666666666666
1252,504.0,524.7333333333333
1253,517.0,524.3333333333334
1254,516.0,524.1333333333333
1255,500.0,524.0333333333333
1256,494.0,523.8
1257,507.0,523.7333333333333
1258,517.0,523.6
1259,517.0,523.6666666666666
1260,504.0,523.2
1261,496.0,522.8333333333334
1262,504.0,522.8333333333334
1263,516.0,522.6666666666666
1264,517.0,522.7
1265,503.0,522.4666666666667
1266,494.0,522.2333333333333
1267,503.0,522.2666666666667
1268,514.0,522.1666666666666
1269,513.0,522.1
1270,496.0,522.0333333333333
1271,489.0,521.9333333333333
1272,498.0,522.0666666666667
1273,513.0,521.8
1274,514.0,521.6
1275,501.0,521.6
1276,488.0,521.6666666666666
1277,496.0,521.8666666666667
1278,510.0,521.6333333333333
1279,510.0,521.4333333333333
1280,499.0,521.5
1281,490.0,521.6
1282,500.0,521.7333333333333
1283,514.0,521.6333333333333
1284,516.0,521.6333333333333
1285,499.0,521.6666666666666
1286,488.0,521.8666666666667
1287,499.0,522.1333333333333
1288,513.0,522.0
1289,511.0,521.8666666666667
1290,497.0,522.1
1291,491.0,522.2666666666667
1292,502.0,522.3333333333334
1293,514.0,522.2666666666667
1294,511.0,522.1333333333333
1295,497.0,522.3333333333334
1296,488.0,522.5333333333333
1297,498.0,522.7
1298,513.0,522.6666666666666
1299,515.0,522.7333333333333
1300,498.0,522.6666666666666
1301,492.0,522.5666666666667
1302,502.0,522.4333333333333
1303,513.0,522.4333333333333
1304,512.0,522.3666666666667
1305,496.0,522.5333333333333
1306,489.0,522.5
1307,502.0,522.3
1308,516.0,522.3666666666667
1309,513.0,522.3333333333334
1310,498.0,522.3666666666667
1311,488.0,522.4333333333333
1312,500.0,522.4333333333333
1313,512.0,522.3666666666667
1314,511.0,522.2666666666667
1315,500.0,522.2333333333333
1316,492.0,522.1
1317,503.0,521.9666666666667
1318,515.0,522.0333333333333
1319,517.0,522.1666666666666
1320,504.0,521.9333333333333
1321,494.0,521.8333333333334
1322,502.0,521.8333333333334
1323,516.0,521.9
1324,513.0,521.9
1325,497.0,521.9
1326,489.0,521.8666666666667
1327,503.0,521.7
1328,514.0,521.7333333333333
1329,510.0,521.7
1330,495.0,521.8
1331,492.0,521.8
1332,504.0,521.7333333333333
1333,517.0,521.8666666666667
1334,516.0,522.0
1335,501.0,521.8333333333334
1336,493.0,521.7
1337,504.0,521.6333333333333
1338,515.0,521.6
1339,515.0,521.6666666666666
1340,502.0,521.5333333333333
1341,493.0,521.3666666666667
1342,502.0,521.3
1343,514.0,521.3666666666667
1344,516.0,521.4666666666667
1345,502.0,521.4
1346,491.0,521.4333333333333
1347,501.0,521.5
1348,511.0,521.4333333333333
1349,513.0,521.3
1350,501.0,521.4
1351,493.0,521.4333333333333
1352,505.0,521.3333333333334
1353,518.0,521.4
1354,519.0,521.6
1355,502.0,521.4333333333333
1356,492.0,521.3333333333334
1357,506.0,521.2333333333333
1358,521.0,521.4666666666667
1359,520.0,521.6666666666666
1360,502.0,521.4333333333333
1361,494.0,521.3666666666667
1362,507.0,521.2666666666667
1363,519.0,521.3333333333334
1364,520.0,521.4666666666667
1365,503.0,521.4
1366,493.0,521.4
1367,506.0,521.3333333333334
1368,519.0,521.4666666666667
1369,517.0,521.5333333333333
1370,500.0,521.6
1371,493.0,521.6
1372,508.0,521.4
1373,521.0,521.6333333333333
1374,518.0,521.7
1375,502.0,521.7
1376,498.0,521.4666666666667
1377,512.0,521.1
1378,523.0,521.4333333333333
1379,522.0,521.7333333333333
1380,505.0,521.6
1381,498.0,521.4333333333333
1382,508.0,521.3333333333334
1383,521.0,521.4333333333333
1384,521.0,521.5
1385,507.0,521.3333333333334
1386,496.0,521.2
1387,509.0,521.1
1388,522.0,521.1333333333333
1389,521.0,521.1666666666666
1390,503.0,521.1333333333333
1391,495.0,521.1
1392,509.0,521.0333333333333
1393,520.0,521.0666666666667
1394,520.0,521.0666666666667
1395,507.0,520.9333333333333
1396,499.0,520.7333333333333
1397,506.0,520.7333333333333
1398,515.0,520.6
1399,518.0,520.6333333333333
1400,508.0,520.3666666666667
1401,497.0,520.2333333333333
1402,505.0,520.3333333333334
1403,520.0,520.3
1404,522.0,520.4333333333333
1405,506.0,520.3
1406,497.0,520.3333333333334
1407,507.0,520.5
1408,519.0,520.3666666666667
1409,521.0,520.3333333333334
1410,510.0,520.1666666666666
1411,500.0,520.1
1412,505.0,520.2
1413,517.0,520.0666666666667
1414,517.0,519.9333333333333
1415,505.0,520.0
1416,497.0,519.9666666666667
1417,511.0,519.9
1418,524.0,519.9666666666667
1419,521.0,519.9666666666667
1420,503.0,519.9666666666667
1421,493.0,520.0333333333333
1422,506.0,520.1333333333333
1423,521.0,520.1666666666666
1424,521.0,520.2
1425,503.0,520.3333333333334
1426,495.0,520.4666666666667
1427,509.0,520.3666666666667
1428,524.0,520.6666666666666
1429,525.0,520.9
1430,508.0,520.9
1431,497.0,520.9
1432,508.0,520.8
1433,523.0,520.9
1434,523.0,520.9333333333333
1435,505.0,520.9666666666667
1436,493.0,521.1
1437,510.0,521.0
1438,524.0,521.1666666666666
1439,522.0,521.2
1440,506.0,521.3333333333334
1441,499.0,521.3666666666667
1442,510.0,521.2
1443,523.0,521.4
1444,524.0,521.6333333333333
1445,507.0,521.5666666666667
1446,497.0,521.5666666666667
1447,508.0,521.6666666666666
1448,521.0,521.5666666666667
1449,519.0,521.5
1450,504.0,521.4666666666667
1451,495.0,521.4
1452,506.0,521.4
1453,518.0,521.3
1454,520.0,521.2666666666667
1455,507.0,521.1333333333333
1456,496.0,521.1
1457,506.0,521.2
1458,519.0,521.0333333333333
1459,521.0,520.9
1460,510.0,520.8333333333334
1461,500.0,520.7333333333333
1462,506.0,520.8
1463,519.0,520.6666666666666
1464,521.0,520.6
1465,506.0,520.5666666666667
1466,497.0,520.4333333333333
1467,505.0,520.6
1468,519.0,520.4333333333333
1469,521.0,520.4
1470,507.0,520.3666666666667
1471,498.0,520.4
1472,506.0,520.5333333333333
1473,520.0,520.4333333333333
1474,519.0,520.2666666666667
1475,502.0,520.4333333333333
1476,494.0,520.5333333333333
1477,508.0,520.5333333333333
1478,520.0,520.5
1479,520.0,520.5333333333333
1480,504.0,520.5333333333333
1481,494.0,520.5666666666667
1482,505.0,520.6
1483,518.0,520.6
1484,516.0,520.4666666666667
1485,502.0,520.6333333333333
1486,495.0,520.6666666666666
1487,505.0,520.7
1488,520.0,520.7333333333333
1489,522.0,520.7666666666667
1490,503.0,521.0
1491,495.0,521.1666666666666
1492,507.0,521.1333333333333
1493,520.0,521.1666666666666
1494,516.0,521.0
1495,502.0,521.1333333333333
1496,494.0,521.2333333333333
1497,507.0,521.1666666666666
1498,518.0,521.1333333333333
1499,518.0,521.0333333333333
1500,505.0,521.1
1501,494.0,521.2333333333333
1502,504.0,521.3
1503,519.0,521.2666666666667
1504,517.0,521.2
1505,502.0,521.2
1506,494.0,521.2
1507,506.0,521.2666666666667
1508,518.0,521.2
1509,518.0,521.1333333333333
1510,504.0,521.1333333333333
1511,495.0,521.1
1512,506.0,521.0666666666667
1513,522.0,521.2
1514,523.0,521.4333333333333
1515,507.0,521.2666666666667
1516,496.0,521.2333333333333
1517,504.0,521.2666666666667
1518,519.0,521.2333333333333
1519,524.0,521.3
1520,510.0,521.0666666666667
1521,496.0,521.0333333333333
1522,503.0,521.1666666666666
1523,516.0,521.0333333333333
1524,519.0,521.1333333333333
1525,505.0,521.0333333333333
1526,496.0,520.9666666666667
1527,506.0,521.0
1528,519.0,521.0333333333333
1529,520.0,521.1
1530,503.0,521.1666666666666
1531,494.0,521.1666666666666
1532,504.0,521.1666666666666
1533,517.0,521.1
1534,518.0,521.1333333333333
1535,508.0,520.9333333333333
1536,497.0,520.8333333333334
1537,505.0,520.8666666666667
1538,519.0,520.9
1539,519.0,520.9333333333333
1540,504.0,520.9333333333333
1541,494.0,520.9666666666667
1542,505.0,521.0
1543,521.0,520.9666666666667
1544,520.0,520.8666666666667
1545,507.0,520.8666666666667
1546,499.0,520.7666666666667
1547,508.0,520.6333333333333
1548,519.0,520.6333333333333
1549,523.0,520.6
1550,506.0,520.7333333333333
1551,497.0,520.7
1552,506.0,520.6
1553,520.0,520.7333333333333
1554,521.0,520.8
1555,506.0,520.7666666666667
1556,495.0,520.8
1557,504.0,520.8666666666667
1558,517.0,520.8
1559,521.0,520.8333333333334
1560,505.0,520.7666666666667
1561,494.0,520.7666666666667
1562,504.0,520.7666666666667
1563,520.0,520.8666666666667
1564,522.0,521.0
1565,510.0,520.9333333333333
1566,498.0,520.9
1567,506.0,520.8666666666667
1568,519.0,520.8666666666667
1569,520.0,520.9
1570,507.0,520.8
1571,499.0,520.6333333333333
1572,507.0,520.5666666666667
1573,521.0,520.5666666666667
1574,520.0,520.5666666666667
1575,505.0,520.6333333333333
1576,495.0,520.7666666666667
1577,503.0,520.9333333333333
1578,519.0,520.9333333333333
1579,522.0,520.9
1580,506.0,520.9
1581,494.0,521.0
1582,503.0,521.1
1583,517.0,521.0
1584,520.0,520.9666666666667
1585,511.0,520.8
1586,500.0,520.6333333333333
1587,508.0,520.5
1588,519.0,520.5666666666667
1589,520.0,520.5333333333333
1590,506.0,520.5
1591,496.0,520.4333333333333
1592,506.0,520.3666666666667
1593,520.0,520.3666666666667
1594,520.0,520.3
1595,506.0,520.4333333333333
1596,496.0,520.5
1597,505.0,520.5333333333333
1598,522.0,520.6333333333333
1599,520.0,520.6333333333333
1600,506.0,520.6666666666666
1601,497.0,520.7333333333333
1602,507.0,520.7333333333333
1603,523.0,520.8
1604,524.0,520.9333333333333
1605,509.0,520.8
1606,498.0,520.7
1607,505.0,520.6333333333333
1608,519.0,520.6333333333333
1609,523.0,520.6666666666666
1610,509.0,520.5666666666667
1611,498.0,520.4333333333333
1612,504.0,520.4
1613,517.0,520.4
1614,521.0,520.4333333333333
1615,508.0,520.5333333333333
1616,497.0,520.6333333333333
1617,508.0,520.6333333333333
1618,520.0,520.6666666666666
1619,521.0,520.7
1620,506.0,520.7
1621,498.0,520.6333333333333
1622,505.0,520.6666666666666
1623,518.0,520.6
1624,525.0,520.7666666666667
1625,514.0,520.6333333333333
1626,501.0,520.4666666666667
1627,508.0,520.3666666666667
1628,521.0,520.3333333333334
1629,524.0,520.4666666666667
1630,510.0,520.3333333333334
1631,498.0,520.3
1632,505.0,520.3666666666667
1633,517.0,520.1666666666666
1634,517.0,519.9333333333333
1635,506.0,520.0333333333333
1636,500.0,519.9666666666667
1637,509.0,519.8333333333334
1638,520.0,519.8666666666667
1639,522.0,519.8333333333334
1640,507.0,519.9
1641,495.0,520.0
1642,505.0,519.9666666666667
1643,518.0,520.0
1644,520.0,519.9666666666667
1645,509.0,519.9333333333333
1646,499.0,519.8666666666667
1647,505.0,519.9666666666667
1648,521.0,520.0
1649,520.0,519.9666666666667
1650,504.0,520.0333333333333
1651,490.0,520.3
1652,504.0,520.3333333333334
1653,526.0,520.6
1654,526.0,520.6333333333333
1655,510.0,520.6333333333333
1656,498.0,520.7333333333333
1657,505.0,520.8333333333334
1658,518.0,520.7333333333333
1659,522.0,520.6666666666666
1660,509.0,520.7
1661,499.0,520.6666666666666
1662,505.0,520.6666666666666
1663,515.0,520.6
1664,520.0,520.7
1665,507.0,520.6666666666666
1666,494.0,520.8666666666667
1667,501.0,521.1333333333333
1668,517.0,521.0333333333333
1669,523.0,521.0666666666667
1670,511.0,520.9333333333333
1671,500.0,520.7666666666667
1672,508.0,520.6666666666666
1673,519.0,520.7
1674,521.0,520.7333333333333
1675,510.0,520.7
1676,499.0,520.7
1677,508.0,520.6
1678,523.0,520.6666666666666
1679,523.0,520.7666666666667
1680,510.0,520.5666666666667
1681,500.0,520.2333333333333
1682,507.0,520.1333333333333
1683,524.0,520.0666666666667
1684,526.0,520.0666666666667
1685,508.0,520.1333333333333
1686,497.0,520.1666666666666
1687,508.0,520.0666666666667
1688,519.0,520.1
1689,522.0,520.1
1690,509.0,520.1
1691,499.0,520.1
1692,509.0,519.9666666666667
1693,523.0,520.2333333333333
1694,525.0,520.4
1695,509.0,520.3333333333334
1696,497.0,520.2333333333333
1697,505.0,520.1
1698,519.0,520.1666666666666
1699,523.0,520.1666666666666
1700,508.0,520.2666666666667
1701,496.0,520.4
1702,508.0,520.4
1703,524.0,520.5666666666667
1704,522.0,520.6
1705,508.0,520.6666666666666
1706,498.0,520.7
1707,508.0,520.7
1708,522.0,520.6666666666666
1709,521.0,520.6
1710,506.0,520.7333333333333
1711,497.0,520.8333333333334
1712,507.0,520.8333333333334
1713,522.0,520.7666666666667
1714,522.0,520.6333333333333
1715,508.0,520.6333333333333
1716,498.0,520.6
1717,507.0,520.6333333333333
1718,519.0,520.6333333333333
1719,520.0,520.5666666666667
1720,511.0,520.5
1721,500.0,520.4666666666667
1722,509.0,520.4666666666667
1723,520.0,520.3666666666667
1724,523.0,520.3
1725,507.0,520.3666666666667
1726,493.0,520.5
1727,504.0,520.5333333333333
1728,520.0,520.5666666666667
1729,523.0,520.5666666666667
1730,508.0,520.5666666666667
1731,497.0,520.5333333333333
1732,504.0,520.6666666666666
1733,520.0,520.5333333333333
1734,522.0,520.5333333333333
1735,507.0,520.5666666666667
1736,498.0,520.5666666666667
1737,505.0,520.6666666666666
1738,518.0,520.5333333333333
1739,520.0,520.5
1740,509.0,520.4
1741,499.0,520.3333333333334
1742,507.0,520.3333333333334
1743,518.0,520.2
1744,515.0,519.9666666666667
1745,505.0,520.0666666666667
1746,495.0,520.1666666666666
1747,507.0,520.1666666666666
1748,519.0,520.1666666666666
1749,520.0,520.1666666666666
