Action_Label,lifting_cup_7s
Fs_Hz,250
Total_Samples,1750

Sample_Index,Raw_EMG,Envelope
0,502.0,535.0333333333333
1,538.0,535.1
2,538.0,534.9
3,485.0,535.5333333333333
4,469.0,535.8
5,503.0,535.8666666666667
6,546.0,536.0333333333333
7,548.0,536.2666666666667
8,506.0,536.0
9,474.0,535.9666666666667
10,500.0,536.0
11,539.0,536.0333333333333
12,540.0,536.2666666666667
13,498.0,536.1666666666666
14,473.0,536.2666666666667
15,501.0,536.2333333333333
16,539.0,536.3333333333334
17,541.0,536.4
18,499.0,536.2
19,473.0,536.1333333333333
20,498.0,536.3
21,532.0,536.0333333333333
22,541.0,536.0
23,504.0,535.9666666666667
24,477.0,535.9
25,493.0,536.1666666666666
26,538.0,536.1333333333333
27,542.0,536.1
28,502.0,536.0333333333333
29,476.0,536.0333333333333
30,501.0,536.0666666666667
31,539.0,536.1
32,538.0,536.1
33,491.0,535.9
34,474.0,535.7333333333333
35,506.0,535.6333333333333
36,540.0,535.4333333333333
37,543.0,535.2666666666667
38,503.0,535.3666666666667
39,478.0,535.2333333333333
40,504.0,535.1
41,535.0,534.9666666666667
42,538.0,534.9
43,504.0,534.7
44,474.0,534.6666666666666
45,503.0,534.6
46,541.0,534.6666666666666
47,544.0,534.7666666666667
48,503.0,534.6333333333333
49,475.0,534.5666666666667
50,500.0,534.5
51,536.0,534.6333333333333
52,538.0,534.5333333333333
53,492.0,534.9333333333333
54,475.0,535.0
55,501.0,534.7333333333333
56,541.0,534.8333333333334
57,543.0,534.8666666666667
58,498.0,535.0
59,465.0,535.3666666666667
60,498.0,535.4666666666667
61,540.0,535.5
62,546.0,535.7666666666667
63,507.0,535.2333333333333
64,477.0,535.1333333333333
65,496.0,535.4666666666667
66,537.0,535.3666666666667
67,544.0,535.4
68,502.0,535.4333333333333
69,472.0,535.6333333333333
70,496.0,535.9
71,536.0,535.9333333333333
72,541.0,536.0333333333333
73,496.0,536.3
74,475.0,536.2666666666667
75,503.0,536.2666666666667
76,543.0,536.3333333333334
77,549.0,536.5
78,507.0,536.3666666666667
79,476.0,536.3333333333334
80,495.0,536.5
81,534.0,536.4333333333333
82,539.0,536.4666666666667
83,499.0,536.2333333333333
84,467.0,536.5
85,492.0,536.8
86,534.0,536.5666666666667
87,541.0,536.5
88,504.0,536.3
89,475.0,535.9666666666667
90,499.0,535.9333333333333
91,537.0,535.8333333333334
92,541.0,535.6666666666666
93,501.0,535.8666666666667
94,472.0,536.0333333333333
95,490.0,536.2333333333333
96,535.0,536.1666666666666
97,545.0,536.2
98,503.0,536.1666666666666
99,473.0,536.1333333333333
100,504.0,535.8666666666667
101,544.0,536.1333333333333
102,544.0,536.2333333333333
103,501.0,536.0666666666667
104,470.0,536.2333333333333
105,492.0,536.6
106,532.0,536.2333333333333
107,538.0,535.8666666666667
108,503.0,536.0
109,474.0,536.0666666666667
110,487.0,536.3333333333334
111,536.0,536.4
112,545.0,536.6
113,506.0,536.3666666666667
114,472.0,536.2
115,498.0,536.0
116,534.0,536.0
117,540.0,535.9666666666667
118,501.0,536.0666666666667
119,471.0,536.2
120,492.0,536.4333333333333
121,534.0,536.3333333333334
122,540.0,536.3
123,499.0,536.3666666666667
124,470.0,536.4333333333333
125,494.0,536.3
126,533.0,536.2333333333333
127,539.0,536.0333333333333
128,502.0,536.0666666666667
129,474.0,536.0333333333333
130,495.0,536.3333333333334
131,532.0,535.9333333333333
132,545.0,535.9666666666667
133,506.0,535.8
134,473.0,535.7
135,496.0,535.5666666666667
136,533.0,535.6
137,530.0,535.3333333333334
138,499.0,535.4666666666667
139,478.0,535.3333333333334
140,501.0,534.8666666666667
141,540.0,535.0
142,544.0,534.9666666666667
143,506.0,534.9666666666667
144,474.0,534.9
145,496.0,534.9666666666667
146,526.0,534.7
147,543.0,534.8
148,513.0,534.4666666666667
149,477.0,534.2666666666667
150,497.0,534.1
151,537.0,534.2
152,545.0,534.3666666666667
153,504.0,534.2
154,471.0,534.1666666666666
155,498.0,534.0333333333333
156,533.0,534.0333333333333
157,542.0,534.1333333333333
158,509.0,533.9
159,476.0,533.8333333333334
160,499.0,533.7
161,539.0,533.9333333333333
162,535.0,533.6
163,506.0,533.6
164,477.0,533.4666666666667
165,504.0,533.2
166,541.0,533.4666666666667
167,551.0,534.1666666666666
168,513.0,533.7666666666667
169,476.0,533.8333333333334
170,497.0,533.9666666666667
171,536.0,533.8333333333334
172,546.0,533.9
173,504.0,533.9666666666667
174,468.0,534.1666666666666
175,483.0,534.6
176,534.0,534.8666666666667
177,546.0,534.9666666666667
178,509.0,535.0333333333333
179,476.0,535.0666666666667
180,498.0,535.0333333333333
181,536.0,535.0
182,543.0,534.9333333333333
183,505.0,534.9
184,473.0,534.8333333333334
185,495.0,534.9333333333333
186,531.0,534.8666666666667
187,545.0,534.9666666666667
188,510.0,534.9333333333333
189,475.0,534.9666666666667
190,487.0,535.3666666666667
191,539.0,535.3666666666667
192,548.0,535.8
193,513.0,535.6333333333333
194,475.0,535.7
195,498.0,535.9
196,531.0,535.5666666666667
197,536.0,535.0666666666667
198,510.0,535.1
199,478.0,535.0333333333333
200,496.0,535.0666666666667
201,534.0,535.0
202,545.0,534.9666666666667
203,513.0,534.7333333333333
204,475.0,534.5
205,493.0,534.1666666666666
206,530.0,534.0333333333333
207,547.0,534.0666666666667
208,511.0,534.0
209,475.0,534.0333333333333
210,491.0,534.2666666666667
211,531.0,534.1
212,543.0,534.1
213,510.0,533.9333333333333
214,481.0,533.6666666666666
215,494.0,533.7
216,533.0,533.7666666666667
217,537.0,533.5
218,505.0,533.6666666666666
219,468.0,533.9
220,496.0,533.6
221,535.0,533.4666666666667
222,547.0,533.4333333333333
223,509.0,533.5
224,477.0,533.4333333333333
225,497.0,533.4666666666667
226,536.0,533.6333333333333
227,550.0,534.1
228,512.0,534.0333333333333
229,473.0,534.2
230,495.0,534.2333333333333
231,532.0,534.1666666666666
232,541.0,534.0333333333333
233,504.0,534.2666666666667
234,474.0,534.3
235,494.0,534.2666666666667
236,531.0,534.3
237,531.0,533.7666666666667
238,504.0,534.0
239,479.0,533.8666666666667
240,494.0,533.7666666666667
241,523.0,533.5
242,534.0,533.2
243,513.0,533.1666666666666
244,480.0,533.2
245,498.0,533.0666666666667
246,534.0,533.1
247,545.0,533.3666666666667
248,513.0,533.1666666666666
249,476.0,532.9
250,492.0,533.0333333333333
251,529.0,532.8333333333334
252,544.0,532.7333333333333
253,510.0,532.7
254,476.0,532.7333333333333
255,496.0,532.7666666666667
256,534.0,532.7
257,545.0,532.5333333333333
258,509.0,532.6333333333333
259,477.0,532.5
260,492.0,532.6
261,529.0,532.5
262,541.0,532.5
263,500.0,532.6333333333333
264,473.0,532.6666666666666
265,495.0,532.6333333333333
266,531.0,532.6333333333333
267,534.0,532.7333333333333
268,508.0,532.6
269,475.0,532.7333333333333
270,496.0,532.6666666666666
271,530.0,532.9
272,545.0,533.2666666666667
273,513.0,533.2666666666667
274,479.0,533.3
275,493.0,533.4666666666667
276,531.0,533.3666666666667
277,542.0,533.2666666666667
278,515.0,533.3333333333334
279,475.0,533.3666666666667
280,490.0,533.4333333333333
281,528.0,533.4
282,539.0,533.2333333333333
283,508.0,533.3
284,474.0,533.3666666666667
285,491.0,533.5333333333333
286,532.0,533.4666666666667
287,531.0,533.0
288,500.0,533.3
289,477.0,533.3
290,492.0,533.3
291,537.0,533.5666666666667
292,547.0,533.7666666666667
293,513.0,533.4
294,473.0,533.4
295,490.0,533.5666666666667
296,530.0,533.5333333333333
297,543.0,533.8333333333334
298,509.0,533.8
299,472.0,533.9
300,479.0,534.4666666666667
301,532.0,534.5333333333333
302,548.0,534.6333333333333
303,516.0,534.7333333333333
304,477.0,534.8
305,495.0,534.7333333333333
306,537.0,534.9333333333333
307,542.0,534.9333333333333
308,508.0,534.9666666666667
309,478.0,534.8666666666667
310,494.0,534.7333333333333
311,531.0,534.8333333333334
312,553.0,535.3
313,520.0,535.4333333333333
314,475.0,535.4
315,490.0,535.4333333333333
316,531.0,535.4
317,538.0,535.6333333333333
318,509.0,535.3333333333334
319,476.0,535.3666666666667
320,493.0,535.3333333333334
321,532.0,535.1666666666666
322,544.0,535.0666666666667
323,511.0,535.0666666666667
324,474.0,535.0333333333333
325,490.0,535.0333333333333
326,530.0,535.0333333333333
327,544.0,535.0666666666667
328,511.0,535.0
329,472.0,535.0
330,485.0,534.8
331,525.0,534.5666666666667
332,540.0,534.3
333,508.0,534.3
334,470.0,534.5333333333333
335,485.0,534.8666666666667
336,528.0,534.5666666666667
337,543.0,534.6
338,512.0,534.4666666666667
339,475.0,534.5666666666667
340,486.0,534.8333333333334
341,527.0,534.7
342,542.0,534.3333333333334
343,512.0,534.0666666666667
344,474.0,534.1
345,488.0,534.1666666666666
346,529.0,534.1
347,542.0,534.2333333333333
348,511.0,534.1666666666666
349,473.0,534.2666666666667
350,488.0,534.4333333333333
351,528.0,534.3
352,543.0,534.2666666666667
353,511.0,534.2666666666667
354,474.0,534.2666666666667
355,489.0,534.3
356,529.0,534.2666666666667
357,544.0,534.2666666666667
358,512.0,534.2333333333333
359,474.0,534.1666666666666
360,488.0,534.0666666666667
361,529.0,534.2
362,543.0,534.3
363,514.0,534.2333333333333
364,474.0,534.1
365,486.0,534.0666666666667
366,526.0,534.0
367,544.0,534.0333333333333
368,515.0,534.1333333333333
369,478.0,534.0333333333333
370,490.0,533.9
371,530.0,534.0
372,546.0,534.1333333333333
373,516.0,534.2666666666667
374,478.0,534.1333333333333
375,489.0,534.1
376,529.0,534.1
377,547.0,534.2666666666667
378,515.0,534.3333333333334
379,474.0,534.3
380,487.0,534.3333333333334
381,531.0,534.4333333333333
382,549.0,534.6333333333333
383,519.0,534.8333333333334
384,479.0,534.6666666666666
385,490.0,534.6333333333333
386,529.0,534.6333333333333
387,545.0,534.6666666666666
388,516.0,534.8
389,476.0,534.7333333333333
390,487.0,534.7666666666667
391,528.0,534.7333333333333
392,545.0,534.8
393,515.0,534.8333333333334
394,475.0,534.8
395,485.0,534.8333333333334
396,527.0,534.8666666666667
397,545.0,534.9
398,515.0,534.9
399,476.0,534.9666666666667
400,485.0,535.1333333333333
401,526.0,535.0
402,546.0,535.0
403,515.0,534.9666666666667
404,476.0,535.0333333333333
405,487.0,535.1
406,528.0,535.0666666666667
407,544.0,534.9666666666667
408,516.0,535.0
409,475.0,534.9666666666667
410,483.0,535.1
411,525.0,534.9
412,544.0,534.7333333333333
413,515.0,534.6
414,477.0,534.6666666666666
415,485.0,534.8333333333334
416,529.0,534.8333333333334
417,548.0,534.9333333333333
418,516.0,534.9333333333333
419,472.0,535.0666666666667
420,479.0,535.3333333333334
421,529.0,535.3666666666667
422,545.0,535.3666666666667
423,513.0,535.3
424,474.0,535.3333333333334
425,483.0,535.4
426,514.0,534.9666666666667
427,536.0,534.6666666666666
428,510.0,534.6333333333333
429,469.0,534.8666666666667
430,470.0,535.3666666666667
431,503.0,535.2
432,518.0,534.2666666666667
433,490.0,534.9
434,451.0,535.7333333333333
435,452.0,536.9
436,486.0,537.2333333333333
437,501.0,536.5333333333333
438,471.0,537.7666666666667
439,433.0,539.1666666666666
440,431.0,540.9
441,459.0,542.2333333333333
442,478.0,542.3
443,465.0,543.7666666666667
444,443.0,544.9
445,459.0,545.7666666666667
446,485.0,546.1
447,490.0,545.6333333333333
448,444.0,547.7666666666667
449,392.0,550.4333333333333
450,365.0,554.2333333333333
451,368.0,558.4666666666667
452,365.0,562.2666666666667
453,333.0,568.2
454,292.0,574.2666666666667
455,285.0,580.8666666666667
456,294.0,588.0666666666666
457,307.0,594.1
458,282.0,601.7
459,265.0,608.5
460,272.0,615.1
461,310.0,621.5333333333333
462,336.0,627.2
463,329.0,632.5666666666666
464,309.0,637.3
465,326.0,641.5
466,356.0,645.8333333333334
467,409.0,648.9
468,421.0,650.5666666666666
469,414.0,651.2
470,433.0,651.1333333333333
471,466.0,650.9
472,498.0,650.2333333333333
473,504.0,648.9333333333334
474,498.0,647.1
475,517.0,645.5
476,550.0,645.8666666666667
477,576.0,647.2666666666667
478,580.0,647.2666666666667
479,598.0,646.1333333333333
480,634.0,645.3
481,691.0,646.4666666666667
482,737.0,649.0666666666666
483,755.0,651.2
484,762.0,652.2
485,794.0,654.0333333333333
486,849.0,658.0
487,884.0,663.5666666666666
488,877.0,668.0666666666666
489,853.0,671.2
490,851.0,674.5
491,857.0,679.2666666666667
492,842.0,684.4
493,789.0,687.5333333333333
494,735.0,688.2
495,709.0,688.5666666666666
496,703.0,689.7333333333333
497,688.0,692.1666666666666
498,645.0,693.5666666666666
499,599.0,693.2
500,584.0,692.9666666666667
501,593.0,694.1333333333333
502,579.0,695.9
503,557.0,697.1333333333333
504,524.0,697.0666666666666
505,523.0,697.2666666666667
506,556.0,697.4666666666667
507,558.0,696.8666666666667
508,527.0,695.1
509,498.0,692.7
510,502.0,688.9666666666667
511,530.0,683.6
512,538.0,676.9666666666667
513,512.0,668.8666666666667
514,475.0,661.7666666666667
515,479.0,653.4666666666667
516,509.0,642.3333333333334
517,521.0,630.2333333333333
518,495.0,618.6333333333333
519,463.0,608.9
520,472.0,598.9333333333334
521,509.0,587.5333333333333
522,529.0,577.1
523,505.0,568.1
524,461.0,562.3666666666667
525,470.0,557.2
526,505.0,551.0666666666667
527,526.0,545.6666666666666
528,496.0,541.7666666666667
529,480.0,539.9333333333333
530,493.0,538.1666666666666
531,537.0,536.3
532,561.0,535.7
533,534.0,534.9333333333333
534,487.0,535.3666666666667
535,488.0,535.8
536,529.0,534.9
537,549.0,534.6
538,517.0,534.2666666666667
539,477.0,534.9666666666667
540,488.0,535.4333333333333
541,530.0,535.4333333333333
542,544.0,535.6333333333333
543,508.0,535.7666666666667
544,462.0,536.2
545,477.0,536.2666666666667
546,518.0,536.3666666666667
547,529.0,536.6333333333333
548,500.0,536.4666666666667
549,467.0,536.3333333333334
550,474.0,536.2666666666667
551,515.0,536.2666666666667
552,532.0,536.3666666666667
553,496.0,536.6666666666666
554,457.0,536.8
555,474.0,536.6666666666666
556,518.0,536.6333333333333
557,528.0,536.7
558,500.0,536.5666666666667
559,460.0,537.2333333333333
560,473.0,537.9
561,513.0,537.1
562,526.0,535.9333333333333
563,505.0,535.4333333333333
564,463.0,536.2333333333333
565,474.0,536.7
566,524.0,536.5333333333333
567,532.0,535.9666666666667
568,492.0,536.4666666666667
569,458.0,537.1
570,470.0,537.7
571,514.0,537.1666666666666
572,527.0,536.6
573,499.0,536.9
574,454.0,537.1666666666666
575,470.0,537.4
576,515.0,537.3
577,536.0,537.5333333333333
578,500.0,537.5333333333333
579,464.0,537.6333333333333
580,477.0,537.5333333333333
581,520.0,537.7
582,540.0,537.9666666666667
583,499.0,537.8666666666667
584,460.0,537.7666666666667
585,470.0,537.9
586,513.0,537.7333333333333
587,536.0,538.0
588,501.0,537.9666666666667
589,460.0,537.9666666666667
590,468.0,538.1333333333333
591,522.0,538.4333333333333
592,544.0,539.0333333333333
593,511.0,538.8333333333334
594,462.0,538.8666666666667
595,466.0,539.1333333333333
596,521.0,539.0333333333333
597,542.0,539.3666666666667
598,510.0,538.7666666666667
599,468.0,538.4333333333333
600,479.0,538.1333333333333
601,524.0,538.4666666666667
602,546.0,539.1
603,513.0,538.7
604,465.0,538.3333333333334
605,475.0,538.1666666666666
606,520.0,538.3333333333334
607,541.0,538.5
608,511.0,538.1333333333333
609,469.0,537.9666666666667
610,477.0,537.9666666666667
611,523.0,538.0666666666667
612,536.0,537.9333333333333
613,509.0,537.6
614,474.0,537.1333333333333
615,486.0,536.6
616,531.0,537.2
617,545.0,537.5
618,513.0,537.1666666666666
619,472.0,536.7666666666667
620,481.0,536.3333333333334
621,525.0,536.4333333333333
622,546.0,536.5
623,515.0,536.5666666666667
624,468.0,536.3666666666667
625,471.0,536.2
626,523.0,536.2666666666667
627,542.0,536.2666666666667
628,519.0,536.4333333333333
629,474.0,536.2333333333333
630,474.0,536.4
631,519.0,536.2333333333333
632,550.0,536.3666666666667
633,520.0,536.6
634,475.0,536.2666666666667
635,481.0,536.0666666666667
636,526.0,536.2666666666667
637,544.0,536.3666666666667
638,507.0,536.5
639,471.0,536.4333333333333
640,486.0,536.1333333333333
641,527.0,536.2666666666667
642,550.0,536.7333333333333
643,515.0,536.7333333333333
644,467.0,536.9666666666667
645,478.0,537.2333333333333
646,524.0,537.0
647,543.0,536.9333333333333
648,509.0,537.0
649,474.0,536.9333333333333
650,493.0,536.5333333333333
651,534.0,536.8333333333334
652,541.0,536.6666666666666
653,519.0,536.8
654,477.0,536.5
655,485.0,536.0333333333333
656,522.0,536.0
657,536.0,535.8
658,517.0,535.7333333333333
659,477.0,535.6333333333333
660,473.0,535.6666666666666
661,519.0,535.6666666666666
662,542.0,535.4
663,520.0,535.4
664,468.0,535.6333333333333
665,465.0,536.1666666666666
666,511.0,535.7333333333333
667,541.0,535.6333333333333
668,506.0,535.6666666666666
669,461.0,536.0
670,462.0,536.8
671,491.0,537.0
672,519.0,535.9666666666667
673,494.0,536.4666666666667
674,456.0,536.8333333333334
675,473.0,537.0
676,513.0,536.6333333333333
677,522.0,535.9333333333333
678,488.0,536.6333333333333
679,448.0,537.5
680,444.0,539.1333333333333
681,478.0,539.5333333333333
682,497.0,539.0666666666667
683,480.0,539.9
684,451.0,540.7666666666667
685,456.0,541.7333333333333
686,483.0,542.3666666666667
687,497.0,542.0666666666667
688,482.0,542.9
689,459.0,543.5
690,467.0,543.7
691,492.0,544.1333333333333
692,502.0,543.4666666666667
693,486.0,544.0666666666667
694,464.0,544.2
695,466.0,544.1666666666666
696,486.0,545.0
697,492.0,544.7
698,479.0,545.6
699,463.0,545.5333333333333
700,470.0,545.2666666666667
701,499.0,545.0
702,513.0,544.8
703,494.0,544.8
704,467.0,544.4333333333333
705,472.0,544.4666666666667
706,476.0,545.6333333333333
707,490.0,546.0333333333333
708,477.0,546.4
709,460.0,546.0
710,459.0,545.5
711,484.0,545.3
712,515.0,544.9
713,491.0,544.5333333333333
714,450.0,544.5666666666667
715,460.0,544.4333333333333
716,490.0,544.2
717,495.0,544.2666666666667
718,493.0,543.9
719,522.0,542.4666666666667
720,512.0,540.9666666666667
721,532.0,540.9666666666667
722,523.0,541.0
723,505.0,540.3666666666667
724,500.0,539.1666666666666
725,513.0,537.6666666666666
726,512.0,536.8
727,513.0,536.1666666666666
728,461.0,536.7666666666667
729,438.0,537.6
730,506.0,536.4
731,577.0,538.1333333333333
732,578.0,540.3
733,553.0,541.0666666666667
734,530.0,540.1666666666666
735,533.0,539.5333333333333
736,522.0,538.6666666666666
737,518.0,538.1333333333333
738,502.0,537.3
739,507.0,535.7333333333333
740,517.0,534.1333333333333
741,524.0,533.6
742,520.0,533.7666666666667
743,504.0,533.3333333333334
744,480.0,532.3333333333334
745,500.0,531.0
746,525.0,530.7
747,529.0,530.7
748,527.0,530.5666666666667
749,530.0,530.8333333333334
750,545.0,531.9333333333333
751,553.0,532.6333333333333
752,542.0,533.2666666666667
753,518.0,533.2333333333333
754,500.0,533.2333333333333
755,527.0,533.7
756,551.0,535.0
757,534.0,535.7
758,510.0,534.0666666666667
759,506.0,531.8
760,523.0,531.9666666666667
761,537.0,530.6333333333333
762,538.0,529.3
763,519.0,528.1666666666666
764,509.0,527.6666666666666
765,529.0,527.5333333333333
766,543.0,528.2333333333333
767,537.0,528.8666666666667
768,518.0,528.7333333333333
769,516.0,528.7
770,537.0,529.3666666666667
771,549.0,530.2
772,537.0,530.7666666666667
773,502.0,530.8333333333334
774,503.0,530.0666666666667
775,530.0,530.2666666666667
776,561.0,531.4666666666667
777,560.0,532.5
778,533.0,532.7
779,513.0,532.1333333333333
780,532.0,531.7
781,559.0,531.9
782,557.0,532.4
783,525.0,532.6333333333333
784,500.0,532.6333333333333
785,530.0,532.7333333333333
786,571.0,533.4
787,565.0,534.4333333333333
788,526.0,534.8333333333334
789,505.0,534.8666666666667
790,522.0,534.8333333333334
791,551.0,535.3
792,550.0,535.7
793,528.0,536.0
794,512.0,535.9
795,537.0,536.1666666666666
796,562.0,536.8
797,554.0,537.3666666666667
798,508.0,537.3
799,493.0,537.8
800,535.0,537.7333333333333
801,565.0,538.2666666666667
802,557.0,538.9333333333333
803,526.0,539.0666666666667
804,512.0,538.7666666666667
805,538.0,539.0333333333333
806,562.0,539.0666666666667
807,568.0,539.3333333333334
808,534.0,539.3666666666667
809,508.0,539.4666666666667
810,523.0,539.1666666666666
811,544.0,538.6666666666666
812,549.0,538.4
813,527.0,538.4666666666667
814,501.0,538.4333333333333
815,522.0,538.1666666666666
816,545.0,537.3
817,553.0,536.9
818,523.0,536.8
819,496.0,537.1
820,535.0,537.5333333333333
821,565.0,538.0
822,568.0,538.6
823,541.0,539.0333333333333
824,506.0,539.2333333333333
825,510.0,538.4666666666667
826,530.0,537.4
827,557.0,537.5
828,525.0,537.8
829,514.0,537.2333333333333
830,547.0,537.6333333333333
831,566.0,537.6666666666666
832,547.0,537.3333333333334
833,508.0,537.0
834,491.0,537.7
835,526.0,537.3
836,557.0,537.1333333333333
837,540.0,536.2
838,519.0,535.7
839,511.0,535.6
840,532.0,535.9
841,549.0,536.0666666666667
842,530.0,535.4333333333333
843,508.0,535.0666666666667
844,500.0,535.1
845,515.0,534.8666666666667
846,540.0,534.7
847,542.0,534.3333333333334
848,505.0,534.2
849,488.0,534.4666666666667
850,532.0,534.3666666666667
851,568.0,534.4666666666667
852,561.0,534.2333333333333
853,528.0,533.8
854,500.0,534.0
855,527.0,534.4333333333333
856,554.0,535.2333333333333
857,544.0,534.8
858,513.0,534.4
859,490.0,535.0666666666667
860,521.0,534.2
861,545.0,533.5
862,530.0,532.9333333333333
863,504.0,533.0666666666667
864,502.0,532.7
865,529.0,532.8
866,555.0,532.7333333333333
867,552.0,533.1333333333333
868,513.0,532.9333333333333
869,480.0,533.9666666666667
870,513.0,533.3333333333334
871,555.0,533.5333333333333
872,554.0,534.3333333333334
873,512.0,534.2
874,483.0,534.7666666666667
875,510.0,534.7333333333333
876,543.0,534.8333333333334
877,539.0,534.7333333333333
878,508.0,534.6333333333333
879,484.0,534.7666666666667
880,497.0,534.6
881,516.0,532.8666666666667
882,531.0,531.8666666666667
883,519.0,531.5666666666667
884,496.0,531.7
885,525.0,531.6333333333333
886,561.0,531.8666666666667
887,555.0,532.2333333333333
888,516.0,532.3333333333334
889,491.0,532.3
890,518.0,532.2
891,547.0,532.2666666666667
892,542.0,532.6666666666666
893,504.0,532.6666666666666
894,474.0,533.6
895,504.0,533.3
896,540.0,532.8
897,537.0,532.3
898,501.0,532.6333333333333
899,467.0,533.0666666666667
900,483.0,534.0
901,527.0,533.0666666666667
902,543.0,532.7
903,520.0,532.9666666666667
904,496.0,532.5333333333333
905,517.0,532.6333333333333
906,544.0,532.6666666666666
907,533.0,532.4666666666667
908,489.0,533.1
909,469.0,533.6
910,513.0,533.1333333333333
911,550.0,534.2666666666667
912,539.0,534.5333333333333
913,508.0,534.4333333333333
914,491.0,534.6
915,511.0,534.2
916,541.0,533.5333333333333
917,535.0,532.8666666666667
918,495.0,533.3
919,471.0,533.9666666666667
920,495.0,534.3333333333334
921,522.0,533.5
922,510.0,532.5666666666667
923,495.0,532.8666666666667
924,503.0,531.9
925,531.0,532.2666666666667
926,553.0,532.7
927,541.0,532.8333333333334
928,504.0,532.7333333333333
929,481.0,532.2666666666667
930,510.0,531.3666666666667
931,548.0,532.0666666666667
932,541.0,532.0
933,506.0,531.9333333333333
934,485.0,532.3
935,509.0,532.2333333333333
936,532.0,531.8333333333334
937,527.0,531.6333333333333
938,503.0,531.1666666666666
939,485.0,530.6333333333333
940,499.0,531.0333333333333
941,524.0,530.1666666666666
942,531.0,529.9
943,512.0,529.7666666666667
944,492.0,529.7333333333333
945,513.0,529.7333333333333
946,537.0,529.6
947,521.0,529.1333333333333
948,488.0,529.3666666666667
949,481.0,529.0333333333333
950,517.0,528.6333333333333
951,542.0,529.3
952,529.0,529.8
953,489.0,530.0
954,481.0,530.7333333333333
955,508.0,530.2333333333333
956,543.0,529.9
957,536.0,529.7333333333333
958,508.0,529.6
959,491.0,529.2666666666667
960,513.0,529.2333333333333
961,533.0,528.7333333333333
962,516.0,527.9
963,489.0,528.4666666666667
964,477.0,528.7333333333333
965,504.0,528.9
966,528.0,528.7666666666667
967,517.0,528.4333333333333
968,499.0,528.5666666666667
969,476.0,528.8666666666667
970,512.0,528.4333333333333
971,546.0,529.1666666666666
972,534.0,529.2666666666667
973,501.0,529.6333333333333
974,488.0,529.7666666666667
975,504.0,530.0
976,522.0,529.5
977,521.0,529.5
978,508.0,528.8333333333334
979,481.0,528.8333333333334
980,492.0,529.3333333333334
981,534.0,529.0666666666667
982,549.0,529.7333333333333
983,519.0,529.2
984,489.0,528.9333333333333
985,499.0,529.2333333333333
986,531.0,528.8333333333334
987,527.0,528.5333333333333
988,497.0,528.9
989,481.0,529.2333333333333
990,492.0,529.8666666666667
991,515.0,529.2666666666667
992,526.0,529.6
993,504.0,529.1
994,483.0,528.9
995,511.0,528.6666666666666
996,538.0,529.0
997,532.0,529.5
998,504.0,529.3333333333334
999,482.0,529.1333333333333
1000,500.0,529.5333333333333
1001,527.0,528.9
1002,521.0,528.4666666666667
1003,500.0,528.5
1004,479.0,528.8
1005,498.0,529.0
1006,528.0,529.2
1007,532.0,529.5666666666667
1008,503.0,529.7333333333333
1009,474.0,529.9666666666667
1010,488.0,530.1
1011,516.0,529.5
1012,522.0,528.6
1013,498.0,528.8333333333334
1014,480.0,529.1333333333333
1015,495.0,529.2666666666667
1016,520.0,528.9
1017,534.0,529.1333333333333
1018,516.0,528.7666666666667
1019,485.0,528.6333333333333
1020,499.0,528.4
1021,528.0,528.8333333333334
1022,527.0,528.8666666666667
1023,498.0,529.0666666666667
1024,478.0,529.2333333333333
1025,499.0,529.6333333333333
1026,528.0,529.3
1027,529.0,529.2
1028,499.0,529.3666666666667
1029,470.0,529.7666666666667
1030,485.0,530.2666666666667
1031,520.0,530.0333333333333
1032,530.0,530.3333333333334
1033,501.0,530.3
1034,475.0,530.4333333333333
1035,487.0,530.8
1036,511.0,530.3
1037,528.0,530.1666666666666
1038,510.0,529.9333333333333
1039,484.0,529.6
1040,501.0,529.1666666666666
1041,532.0,529.7
1042,531.0,530.0
1043,494.0,530.1333333333333
1044,474.0,530.3333333333334
1045,498.0,530.2333333333333
1046,527.0,530.4666666666667
1047,529.0,530.3
1048,495.0,530.7333333333333
1049,474.0,531.1
1050,498.0,531.1333333333333
1051,527.0,531.1
1052,525.0,531.0333333333333
1053,498.0,531.0333333333333
1054,484.0,530.8333333333334
1055,501.0,530.7666666666667
1056,529.0,530.8
1057,533.0,530.9333333333333
1058,507.0,530.6666666666666
1059,477.0,530.4333333333333
1060,488.0,530.3333333333334
1061,517.0,530.2333333333333
1062,528.0,530.1666666666666
1063,503.0,530.1
1064,482.0,529.8666666666667
1065,500.0,529.4333333333333
1066,527.0,529.9
1067,520.0,529.6333333333333
1068,499.0,530.0
1069,480.0,530.1333333333333
1070,491.0,530.4666666666667
1071,523.0,530.1666666666666
1072,541.0,530.5
1073,516.0,530.0333333333333
1074,488.0,529.5666666666667
1075,498.0,529.5666666666667
1076,525.0,529.5
1077,524.0,529.3333333333334
1078,505.0,529.0
1079,483.0,528.7
1080,497.0,528.7333333333333
1081,522.0,528.5666666666667
1082,516.0,528.2666666666667
1083,485.0,528.7
1084,479.0,528.8666666666667
1085,501.0,528.8666666666667
1086,527.0,528.8
1087,524.0,528.5
1088,493.0,528.9666666666667
1089,467.0,529.3
1090,500.0,528.9
1091,537.0,529.5666666666667
1092,534.0,529.7666666666667
1093,504.0,529.7333333333333
1094,476.0,529.9333333333333
1095,492.0,530.2
1096,531.0,530.3333333333334
1097,533.0,530.7666666666667
1098,503.0,530.6333333333333
1099,472.0,530.9
1100,482.0,531.2
1101,522.0,531.1666666666666
1102,534.0,530.9333333333333
1103,509.0,530.9
1104,486.0,530.9666666666667
1105,500.0,530.9
1106,527.0,530.9666666666667
1107,527.0,531.0666666666667
1108,500.0,531.2333333333333
1109,480.0,531.3333333333334
1110,496.0,531.3666666666667
1111,525.0,531.4666666666667
1112,528.0,531.8666666666667
1113,504.0,531.2333333333333
1114,480.0,531.2
1115,494.0,531.4333333333333
1116,522.0,531.2666666666667
1117,522.0,531.2
1118,497.0,531.0666666666667
1119,478.0,530.7
1120,491.0,531.0
1121,519.0,530.4
1122,523.0,530.0333333333333
1123,503.0,530.0666666666667
1124,484.0,529.8
1125,498.0,529.6
1126,522.0,529.3
1127,521.0,528.9
1128,497.0,529.1
1129,480.0,528.8333333333334
1130,498.0,528.3
1131,527.0,528.4666666666667
1132,528.0,528.2666666666667
1133,504.0,528.4333333333333
1134,486.0,528.4333333333333
1135,501.0,528.4
1136,523.0,528.2666666666667
1137,515.0,527.8666666666667
1138,494.0,528.0666666666667
1139,485.0,527.9
1140,508.0,527.5
1141,532.0,527.7333333333333
1142,525.0,527.6333333333333
1143,501.0,527.7333333333333
1144,483.0,527.6333333333333
1145,499.0,527.4666666666667
1146,530.0,527.7333333333333
1147,530.0,528.0
1148,504.0,527.7666666666667
1149,478.0,527.7666666666667
1150,488.0,527.8666666666667
1151,508.0,527.7666666666667
1152,532.0,528.0666666666667
1153,516.0,527.9
1154,492.0,527.6333333333333
1155,505.0,527.4
1156,532.0,527.7333333333333
1157,535.0,528.2
1158,505.0,527.9333333333333
1159,481.0,527.9
1160,493.0,528.0666666666667
1161,522.0,527.9
1162,519.0,527.6
1163,487.0,528.1666666666666
1164,465.0,528.8666666666667
1165,503.0,528.8
1166,536.0,529.2333333333333
1167,536.0,529.9333333333333
1168,510.0,529.4
1169,485.0,529.4
1170,498.0,529.7333333333333
1171,532.0,529.7333333333333
1172,535.0,530.0666666666667
1173,509.0,529.8
1174,482.0,529.8333333333334
1175,481.0,530.4333333333333
1176,496.0,530.3666666666667
1177,518.0,529.9666666666667
1178,521.0,530.0
1179,500.0,529.2666666666667
1180,510.0,528.5333333333333
1181,533.0,529.1
1182,533.0,529.1333333333333
1183,510.0,529.0666666666667
1184,485.0,529.3
1185,495.0,529.6333333333333
1186,524.0,529.3666666666667
1187,528.0,529.1333333333333
1188,506.0,529.1
1189,482.0,529.0666666666667
1190,497.0,528.9333333333333
1191,524.0,529.0
1192,527.0,529.2666666666667
1193,507.0,528.6
1194,481.0,528.0666666666667
1195,491.0,528.4666666666667
1196,522.0,528.0
1197,528.0,527.7333333333333
1198,507.0,527.8333333333334
1199,487.0,527.7666666666667
1200,493.0,527.9333333333333
1201,520.0,527.5333333333333
1202,532.0,527.4333333333333
1203,511.0,527.3666666666667
1204,489.0,527.1333333333333
1205,499.0,526.5333333333333
1206,523.0,526.3666666666667
1207,522.0,526.5
1208,501.0,526.5666666666667
1209,488.0,526.9666666666667
1210,502.0,527.2333333333333
1211,529.0,527.1
1212,529.0,526.9666666666667
1213,504.0,527.1666666666666
1214,482.0,527.2666666666667
1215,498.0,527.1666666666666
1216,526.0,527.2333333333333
1217,528.0,527.2333333333333
1218,503.0,527.3333333333334
1219,483.0,527.3
1220,496.0,527.3333333333334
1221,524.0,527.3333333333334
1222,527.0,527.3333333333334
1223,500.0,527.5666666666667
1224,472.0,527.8666666666667
1225,496.0,527.7
1226,534.0,528.1
1227,537.0,528.4
1228,510.0,528.3
1229,486.0,528.3333333333334
1230,498.0,528.1666666666666
1231,525.0,528.3333333333334
1232,529.0,528.2333333333333
1233,505.0,528.4333333333333
1234,484.0,528.6
1235,494.0,528.7666666666667
1236,518.0,528.6
1237,518.0,528.4666666666667
1238,496.0,528.6333333333333
1239,482.0,528.8333333333334
1240,502.0,528.8333333333334
1241,526.0,528.7333333333333
1242,521.0,528.4666666666667
1243,501.0,528.5666666666667
1244,487.0,528.4
1245,500.0,528.3333333333334
1246,530.0,528.4666666666667
1247,535.0,528.7
1248,512.0,528.4
1249,488.0,528.2333333333333
1250,491.0,528.4
1251,519.0,528.2333333333333
1252,529.0,528.3
1253,510.0,527.9666666666667
1254,486.0,527.5
1255,498.0,527.4333333333333
1256,524.0,527.1
1257,520.0,526.5333333333333
1258,492.0,527.1333333333333
1259,480.0,527.3333333333334
1260,504.0,527.1333333333333
1261,533.0,527.4
1262,532.0,527.5
1263,505.0,527.5
1264,484.0,527.5
1265,497.0,527.4
1266,521.0,527.5
1267,522.0,527.6333333333333
1268,502.0,527.4333333333333
1269,487.0,527.2666666666667
1270,502.0,527.2666666666667
1271,526.0,527.2666666666667
1272,526.0,527.4333333333333
1273,507.0,527.2333333333333
1274,480.0,527.4666666666667
1275,482.0,528.0666666666667
1276,516.0,527.6
1277,529.0,527.4
1278,520.0,527.6666666666666
1279,497.0,527.3666666666667
1280,503.0,526.9666666666667
1281,529.0,527.3
1282,529.0,527.3
1283,501.0,527.6
1284,481.0,527.7666666666667
1285,502.0,527.6333333333333
1286,527.0,527.7333333333333
1287,529.0,528.0333333333333
1288,516.0,527.5
1289,491.0,527.1333333333333
1290,492.0,527.5333333333333
1291,513.0,526.8666666666667
1292,528.0,526.7333333333333
1293,516.0,526.6333333333333
1294,494.0,526.3
1295,503.0,526.1
1296,526.0,526.2666666666667
1297,528.0,526.4666666666667
1298,511.0,526.1666666666666
1299,492.0,526.0
1300,502.0,526.0
1301,526.0,526.0
1302,525.0,525.9666666666667
1303,507.0,525.9666666666667
1304,490.0,525.6333333333333
1305,504.0,524.9
1306,529.0,525.3333333333334
1307,528.0,525.3
1308,508.0,525.1666666666666
1309,490.0,525.4
1310,499.0,525.5333333333333
1311,522.0,525.3
1312,524.0,525.1333333333333
1313,508.0,524.9
1314,489.0,524.6333333333333
1315,501.0,524.6666666666666
1316,527.0,524.6666666666666
1317,530.0,524.7
1318,504.0,524.8333333333334
1319,484.0,525.0666666666667
1320,495.0,524.9666666666667
1321,523.0,525.3
1322,528.0,525.3
1323,507.0,525.3333333333334
1324,488.0,525.5333333333333
1325,498.0,525.7
1326,523.0,525.6
1327,527.0,525.5666666666667
1328,508.0,525.6666666666666
1329,489.0,525.7666666666667
1330,497.0,525.9333333333333
1331,519.0,525.7
1332,527.0,525.7666666666667
1333,504.0,525.8666666666667
1334,492.0,525.8
1335,506.0,525.7333333333333
1336,533.0,525.8666666666667
1337,533.0,526.0333333333333
1338,511.0,525.9333333333333
1339,488.0,526.0
1340,497.0,526.0666666666667
1341,524.0,526.1333333333333
1342,526.0,526.2
1343,506.0,526.2666666666667
1344,489.0,526.2666666666667
1345,499.0,526.3333333333334
1346,521.0,526.1333333333333
1347,525.0,525.9666666666667
1348,510.0,525.7666666666667
1349,484.0,525.7666666666667
1350,487.0,526.0333333333333
1351,520.0,525.9333333333333
1352,536.0,526.2
1353,517.0,526.2
1354,493.0,526.0333333333333
1355,498.0,526.0333333333333
1356,523.0,526.0333333333333
1357,530.0,526.1333333333333
1358,509.0,526.1
1359,480.0,526.4
1360,481.0,526.9333333333333
1361,518.0,526.9
1362,533.0,527.1
1363,519.0,527.0666666666667
1364,495.0,526.9666666666667
1365,497.0,527.2666666666667
1366,520.0,526.8333333333334
1367,522.0,526.4666666666667
1368,501.0,526.8
1369,484.0,526.9333333333333
1370,503.0,526.7333333333333
1371,528.0,526.8666666666667
1372,530.0,527.0
1373,513.0,526.8333333333334
1374,490.0,526.8
1375,493.0,527.0
1376,518.0,526.9
1377,526.0,526.9333333333333
1378,509.0,526.9666666666667
1379,490.0,526.7666666666667
1380,496.0,526.4666666666667
1381,517.0,526.3666666666667
1382,525.0,526.0
1383,510.0,525.9
1384,495.0,525.8333333333334
1385,505.0,525.6
1386,526.0,525.7
1387,527.0,525.6
1388,506.0,525.7
1389,487.0,525.4666666666667
1390,496.0,524.9666666666667
1391,523.0,525.1333333333333
1392,528.0,524.9666666666667
1393,514.0,524.8
1394,492.0,524.9
1395,496.0,524.9333333333333
1396,520.0,524.9333333333333
1397,524.0,525.0
1398,506.0,524.8333333333334
1399,491.0,524.6
1400,499.0,524.7333333333333
1401,522.0,524.5333333333333
1402,529.0,524.5
1403,511.0,524.5
1404,489.0,524.5333333333333
1405,493.0,524.5333333333333
1406,508.0,524.4666666666667
1407,520.0,524.2666666666667
1408,517.0,524.3333333333334
1409,500.0,524.0
1410,504.0,523.7333333333333
1411,522.0,523.9
1412,522.0,523.8
1413,507.0,523.9
1414,495.0,523.9
1415,506.0,523.8666666666667
1416,524.0,523.8
1417,524.0,523.7
1418,503.0,523.8
1419,488.0,523.7666666666667
1420,499.0,523.6666666666666
1421,524.0,523.7
1422,521.0,523.4666666666667
1423,496.0,523.9333333333333
1424,485.0,524.1666666666666
1425,503.0,523.9333333333333
1426,526.0,524.1333333333333
1427,526.0,524.2
1428,510.0,524.0666666666667
1429,495.0,523.9333333333333
1430,504.0,523.7666666666667
1431,528.0,523.9666666666667
1432,530.0,524.0
1433,505.0,524.2
1434,483.0,524.4
1435,502.0,524.1
1436,527.0,524.4666666666667
1437,526.0,524.6666666666666
1438,505.0,524.7333333333333
1439,486.0,525.2
1440,499.0,525.3666666666667
1441,523.0,525.4
1442,524.0,525.4666666666667
1443,506.0,525.5
1444,488.0,525.7333333333333
1445,503.0,525.8333333333334
1446,527.0,525.9333333333333
1447,532.0,526.2
1448,515.0,526.0
1449,491.0,525.9
1450,494.0,526.0666666666667
1451,522.0,526.0
1452,525.0,526.1333333333333
1453,516.0,525.7333333333333
1454,495.0,525.4
1455,500.0,525.5
1456,521.0,525.3333333333334
1457,526.0,525.3333333333334
1458,512.0,525.2666666666667
1459,493.0,525.3333333333334
1460,493.0,525.7
1461,514.0,525.2333333333333
1462,532.0,525.3
1463,517.0,525.2333333333333
1464,495.0,524.8333333333334
1465,498.0,524.9666666666667
1466,522.0,524.8
1467,529.0,524.9
1468,504.0,524.9333333333333
1469,475.0,525.3
1470,492.0,525.5333333333333
1471,531.0,525.8
1472,538.0,526.2666666666667
1473,518.0,526.2666666666667
1474,493.0,526.1
1475,501.0,526.1666666666666
1476,524.0,526.0666666666667
1477,529.0,525.9666666666667
1478,512.0,525.8666666666667
1479,488.0,525.9666666666667
1480,482.0,526.3666666666667
1481,506.0,526.2333333333333
1482,534.0,526.5333333333333
1483,522.0,526.7333333333333
1484,501.0,526.5333333333333
1485,502.0,526.4666666666667
1486,520.0,526.4333333333333
1487,532.0,526.6333333333333
1488,514.0,526.7
1489,491.0,526.7666666666667
1490,494.0,526.7333333333333
1491,525.0,527.1
1492,531.0,527.0666666666667
1493,512.0,526.9
1494,489.0,527.1
1495,493.0,527.2666666666667
1496,517.0,527.1
1497,524.0,526.9333333333333
1498,510.0,526.7333333333333
1499,497.0,526.0
1500,505.0,525.5666666666667
1501,526.0,525.4
1502,529.0,525.1
1503,514.0,524.9666666666667
1504,496.0,524.8666666666667
1505,494.0,525.1
1506,508.0,524.8333333333334
1507,521.0,524.5666666666667
1508,517.0,524.7333333333333
1509,494.0,524.5333333333333
1510,493.0,524.1666666666666
1511,513.0,524.0
1512,527.0,523.7666666666667
1513,519.0,523.6666666666666
1514,500.0,523.7
1515,507.0,523.5333333333333
1516,525.0,523.7
1517,529.0,523.6
1518,507.0,523.7
1519,484.0,523.9333333333333
1520,498.0,523.8
1521,530.0,523.9666666666667
1522,531.0,523.9666666666667
1523,510.0,524.0333333333333
1524,489.0,524.0333333333333
1525,497.0,523.9
1526,523.0,524.1
1527,531.0,524.3333333333334
1528,518.0,524.4666666666667
1529,496.0,524.5
1530,499.0,524.7
1531,512.0,524.2333333333333
1532,512.0,523.6666666666666
1533,509.0,523.7
1534,500.0,523.5666666666667
1535,500.0,523.3666666666667
1536,524.0,523.6333333333333
1537,531.0,523.9666666666667
1538,513.0,523.8333333333334
1539,496.0,523.7666666666667
1540,501.0,523.5
1541,521.0,523.7666666666667
1542,523.0,523.6333333333333
1543,505.0,523.6333333333333
1544,492.0,523.9
1545,499.0,524.1666666666666
1546,520.0,524.0
1547,524.0,523.8333333333334
1548,508.0,523.8
1549,490.0,523.6
1550,496.0,523.6666666666666
1551,520.0,523.3333333333334
1552,525.0,523.1333333333333
1553,513.0,523.1
1554,496.0,522.8666666666667
1555,498.0,522.8333333333334
1556,516.0,522.6
1557,518.0,522.1666666666666
1558,510.0,522.0333333333333
1559,499.0,521.9333333333333
1560,502.0,521.8333333333334
1561,526.0,522.3
1562,529.0,522.8666666666667
1563,510.0,522.8333333333334
1564,490.0,523.1666666666666
1565,495.0,523.3333333333334
1566,524.0,523.3333333333334
1567,534.0,523.4333333333333
1568,518.0,523.6
1569,497.0,523.5666666666667
1570,502.0,523.5333333333333
1571,520.0,523.5
1572,527.0,523.6333333333333
1573,513.0,523.4333333333333
1574,492.0,523.4333333333333
1575,499.0,523.4333333333333
1576,519.0,523.4
1577,525.0,523.4333333333333
1578,509.0,523.4
1579,489.0,523.4333333333333
1580,498.0,523.3666666666667
1581,526.0,523.5666666666667
1582,529.0,523.7
1583,515.0,523.7666666666667
1584,497.0,523.7333333333333
1585,501.0,523.6333333333333
1586,512.0,523.5
1587,515.0,523.4
1588,504.0,523.6
1589,510.0,523.2333333333333
1590,518.0,523.1
1591,527.0,523.1333333333333
1592,531.0,523.2
1593,518.0,523.3333333333334
1594,501.0,522.9666666666667
1595,506.0,522.6
1596,526.0,522.6666666666666
1597,528.0,522.4666666666667
1598,513.0,522.3
1599,492.0,522.4666666666667
1600,499.0,522.5666666666667
1601,524.0,522.7
1602,526.0,522.6666666666666
1603,505.0,522.8666666666667
1604,490.0,522.9333333333333
1605,498.0,522.9666666666667
1606,526.0,523.2
1607,533.0,523.4666666666667
1608,519.0,523.6
1609,503.0,523.1333333333333
1610,502.0,523.0
1611,514.0,522.6
1612,525.0,522.4666666666667
1613,517.0,522.5333333333333
1614,501.0,522.4
1615,505.0,522.2666666666667
1616,522.0,522.6
1617,524.0,522.9
1618,508.0,522.7666666666667
1619,506.0,522.9
1620,515.0,522.8
1621,528.0,522.8333333333334
1622,525.0,522.6333333333333
1623,512.0,522.4333333333333
1624,509.0,522.1666666666666
1625,513.0,522.0
1626,525.0,521.9666666666667
1627,524.0,521.8333333333334
1628,509.0,521.9
1629,497.0,521.7333333333333
1630,503.0,521.6
1631,519.0,521.4333333333333
1632,519.0,521.2
1633,510.0,521.0333333333333
1634,504.0,520.5666666666667
1635,504.0,520.3666666666667
1636,519.0,520.1333333333333
1637,523.0,519.8
1638,513.0,519.6
1639,499.0,519.7333333333333
1640,500.0,519.8
1641,515.0,519.8333333333334
1642,519.0,519.6333333333333
1643,510.0,519.5333333333333
1644,498.0,519.6333333333333
1645,502.0,519.7333333333333
1646,516.0,519.5333333333333
1647,516.0,519.2666666666667
1648,502.0,519.4666666666667
1649,489.0,520.0333333333333
1650,502.0,520.2666666666667
1651,524.0,520.1333333333333
1652,525.0,520.1333333333333
1653,511.0,520.1666666666666
1654,494.0,520.6666666666666
1655,496.0,521.1666666666666
1656,516.0,520.8666666666667
1657,518.0,520.6666666666666
1658,503.0,520.8666666666667
1659,490.0,521.1
1660,496.0,521.3333333333334
1661,520.0,521.3666666666667
1662,524.0,521.5333333333333
1663,508.0,521.6
1664,494.0,521.9333333333333
1665,499.0,522.1
1666,512.0,521.8666666666667
1667,522.0,521.8333333333334
1668,514.0,521.8666666666667
1669,501.0,521.8
1670,501.0,521.7666666666667
1671,513.0,521.7
1672,517.0,521.6333333333333
1673,508.0,521.7
1674,500.0,521.6333333333333
1675,502.0,521.6333333333333
1676,511.0,521.5333333333333
1677,510.0,521.4666666666667
1678,504.0,521.4
1679,497.0,521.1333333333333
1680,501.0,521.1666666666666
1681,514.0,520.8333333333334
1682,517.0,520.5666666666667
1683,509.0,520.6333333333333
1684,493.0,520.6666666666666
1685,496.0,520.6666666666666
1686,511.0,520.5666666666667
1687,520.0,520.6333333333333
1688,512.0,520.3333333333334
1689,502.0,519.9333333333333
1690,503.0,519.7
1691,518.0,519.6333333333333
1692,519.0,519.4666666666667
1693,509.0,519.4333333333333
1694,498.0,519.3
1695,503.0,519.1666666666666
1696,517.0,519.3333333333334
1697,520.0,519.2666666666667
1698,515.0,519.3
1699,503.0,519.2333333333333
1700,500.0,519.2666666666667
1701,515.0,519.3333333333334
1702,521.0,519.4666666666667
1703,515.0,519.4333333333333
1704,505.0,519.2666666666667
1705,503.0,519.2333333333333
1706,506.0,519.4
1707,505.0,519.5666666666667
1708,515.0,519.4
1709,504.0,519.1666666666666
1710,507.0,518.9666666666667
1711,523.0,519.2666666666667
1712,527.0,519.6
1713,517.0,519.6666666666666
1714,499.0,519.4666666666667
1715,502.0,519.2666666666667
1716,509.0,519.3333333333334
1717,506.0,519.2666666666667
1718,507.0,519.4333333333333
1719,505.0,519.3333333333334
1720,509.0,519.1333333333333
1721,523.0,519.3
1722,525.0,519.5
1723,514.0,519.4666666666667
1724,499.0,519.4333333333333
1725,502.0,519.4666666666667
1726,519.0,519.5333333333333
1727,522.0,519.6
1728,503.0,519.8
1729,486.0,520.3666666666667
1730,504.0,520.2333333333333
1731,523.0,520.5
1732,529.0,520.7666666666667
1733,521.0,520.9666666666667
1734,503.0,521.0333333333333
1735,503.0,521.0333333333333
1736,517.0,521.0
1737,526.0,521.2333333333333
1738,516.0,521.2666666666667
1739,502.0,521.3333333333334
1740,504.0,521.4333333333333
1741,516.0,521.2
1742,515.0,520.8
1743,505.0,520.8666666666667
1744,496.0,520.9666666666667
1745,505.0,520.8666666666667
1746,524.0,521.1666666666666
1747,528.0,521.5
1748,516.0,521.4666666666667
1749,502.0,521.5666666666667
