Action_Label,lifting_cup_7s
Fs_Hz,250
Total_Samples,1750

Sample_Index,Raw_EMG,Envelope
0,510.0,522.4666666666667
1,529.0,522.5333333333333
2,532.0,523.0333333333333
3,508.0,522.6666666666666
4,493.0,522.6666666666666
5,511.0,522.6666666666666
6,526.0,522.7
7,522.0,523.0
8,495.0,523.4
9,489.0,523.6666666666666
10,513.0,523.6333333333333
11,530.0,523.6333333333333
12,527.0,523.7
13,506.0,523.5333333333333
14,498.0,523.2666666666667
15,510.0,523.1
16,526.0,523.3
17,522.0,523.2
18,492.0,523.7333333333333
19,492.0,523.9
20,512.0,523.8333333333334
21,519.0,523.5333333333333
22,521.0,523.4333333333333
23,504.0,523.3666666666667
24,496.0,523.3
25,511.0,523.2333333333333
26,533.0,523.8
27,530.0,523.9333333333333
28,505.0,523.7333333333333
29,498.0,523.6
30,514.0,523.6
31,527.0,523.5333333333333
32,521.0,523.1666666666666
33,507.0,523.2
34,499.0,523.0
35,512.0,522.9666666666667
36,528.0,523.0333333333333
37,524.0,523.1
38,504.0,522.8
39,492.0,522.7
40,509.0,522.7666666666667
41,525.0,522.6
42,516.0,522.2333333333333
43,506.0,522.2333333333333
44,494.0,522.3666666666667
45,507.0,522.4666666666667
46,523.0,522.3666666666667
47,531.0,522.6666666666666
48,513.0,522.0333333333333
49,498.0,521.8333333333334
50,513.0,521.8666666666667
51,527.0,522.1333333333333
52,524.0,522.2333333333333
53,503.0,522.2666666666667
54,499.0,522.1666666666666
55,512.0,522.1333333333333
56,527.0,521.9333333333333
57,521.0,521.6333333333333
58,507.0,521.5666666666667
59,498.0,521.5666666666667
60,512.0,521.5
61,528.0,521.5333333333333
62,524.0,521.6333333333333
63,499.0,521.9
64,496.0,522.0
65,511.0,522.0333333333333
66,522.0,521.8333333333334
67,525.0,521.8666666666667
68,504.0,521.8666666666667
69,495.0,521.7666666666667
70,513.0,521.7
71,526.0,521.7333333333333
72,519.0,521.8333333333334
73,502.0,521.9666666666667
74,490.0,522.1
75,514.0,522.0
76,531.0,522.2666666666667
77,526.0,522.1
78,499.0,522.5
79,494.0,522.6333333333333
80,515.0,522.7
81,531.0,522.8333333333334
82,528.0,522.9666666666667
83,508.0,522.8
84,484.0,523.3
85,504.0,523.5666666666667
86,530.0,523.6666666666666
87,528.0,523.9
88,509.0,523.8333333333334
89,506.0,523.5666666666667
90,505.0,523.8
91,527.0,523.7666666666667
92,527.0,523.8666666666667
93,508.0,523.5666666666667
94,495.0,523.6
95,509.0,523.6666666666666
96,527.0,523.8333333333334
97,520.0,523.6666666666666
98,494.0,524.0
99,499.0,523.8666666666667
100,518.0,524.0333333333333
101,529.0,524.1333333333333
102,525.0,524.3333333333334
103,507.0,524.1666666666666
104,500.0,523.8333333333334
105,515.0,523.8666666666667
106,528.0,523.7666666666667
107,524.0,523.7
108,503.0,523.5666666666667
109,496.0,523.5
110,516.0,523.5333333333333
111,539.0,523.8
112,529.0,523.8333333333334
113,503.0,524.0
114,493.0,523.7
115,511.0,523.4666666666667
116,533.0,523.5666666666667
117,532.0,523.7
118,508.0,523.7333333333333
119,485.0,524.4333333333333
120,511.0,524.2333333333333
121,527.0,524.2333333333333
122,530.0,524.3333333333334
123,513.0,524.2333333333333
124,495.0,524.2333333333333
125,509.0,524.2333333333333
126,527.0,524.2333333333333
127,526.0,524.4333333333333
128,503.0,524.1333333333333
129,497.0,524.2
130,509.0,524.1
131,535.0,524.3
132,532.0,524.5333333333333
133,514.0,524.4333333333333
134,501.0,524.4
135,512.0,524.3
136,526.0,524.2333333333333
137,524.0,524.2333333333333
138,502.0,524.2666666666667
139,494.0,524.3333333333334
140,509.0,524.3
141,525.0,523.8333333333334
142,526.0,523.7333333333333
143,507.0,523.6
144,495.0,523.5333333333333
145,506.0,523.7
146,525.0,523.4333333333333
147,525.0,523.2
148,504.0,523.3333333333334
149,493.0,523.0666666666667
150,507.0,523.2
151,525.0,523.1333333333333
152,523.0,522.9
153,503.0,523.1666666666666
154,494.0,523.2
155,511.0,523.1333333333333
156,525.0,523.0666666666667
157,525.0,523.0333333333333
158,506.0,522.9333333333333
159,491.0,523.1333333333333
160,489.0,523.8
161,529.0,523.6
162,534.0,523.6666666666666
163,513.0,523.6333333333333
164,507.0,523.4333333333333
165,520.0,523.7
166,536.0,524.0333333333333
167,532.0,524.3
168,509.0,524.0666666666667
169,492.0,524.1333333333333
170,510.0,524.1
171,527.0,524.1666666666666
172,520.0,523.9666666666667
173,504.0,524.0666666666667
174,497.0,524.0
175,508.0,523.9333333333333
176,526.0,523.9666666666667
177,527.0,524.0333333333333
178,510.0,523.8333333333334
179,501.0,523.5666666666667
180,507.0,523.5666666666667
181,525.0,523.5666666666667
182,519.0,523.4333333333333
183,502.0,523.4666666666667
184,496.0,523.4
185,513.0,523.4
186,530.0,523.5666666666667
187,527.0,523.6333333333333
188,509.0,523.5333333333333
189,493.0,523.4666666666667
190,507.0,522.8666666666667
191,533.0,523.0
192,537.0,523.1
193,517.0,523.2333333333333
194,501.0,523.4333333333333
195,513.0,523.2
196,531.0,523.0333333333333
197,529.0,522.9333333333333
198,506.0,523.0333333333333
199,493.0,523.0
200,506.0,523.1333333333333
201,528.0,523.1666666666666
202,523.0,523.2666666666667
203,502.0,523.3333333333334
204,494.0,523.4333333333333
205,500.0,523.7
206,518.0,523.4333333333333
207,528.0,523.4666666666667
208,508.0,523.5333333333333
209,501.0,523.5333333333333
210,514.0,523.4333333333333
211,528.0,523.5333333333333
212,521.0,523.6
213,506.0,523.4666666666667
214,496.0,523.4666666666667
215,515.0,523.5333333333333
216,534.0,523.6666666666666
217,529.0,523.7333333333333
218,505.0,523.8666666666667
219,478.0,524.3666666666667
220,507.0,524.3666666666667
221,532.0,524.3333333333334
222,528.0,524.0333333333333
223,512.0,523.8666666666667
224,498.0,523.9666666666667
225,509.0,524.0333333333333
226,528.0,523.9333333333333
227,529.0,523.9333333333333
228,496.0,524.2666666666667
229,488.0,524.4333333333333
230,512.0,524.2333333333333
231,534.0,524.4333333333333
232,532.0,524.7333333333333
233,511.0,524.4333333333333
234,496.0,524.3666666666667
235,511.0,524.0
236,534.0,524.5333333333333
237,525.0,524.4333333333333
238,502.0,524.6333333333333
239,491.0,524.9666666666667
240,506.0,525.1
241,524.0,524.9666666666667
242,524.0,525.0666666666667
243,502.0,525.2
244,487.0,525.5
245,502.0,525.7333333333333
246,524.0,525.4
247,537.0,525.6666666666666
248,513.0,525.4666666666667
249,496.0,524.8666666666667
250,497.0,525.2
251,518.0,524.7333333333333
252,530.0,524.8
253,511.0,524.8333333333334
254,503.0,524.6666666666666
255,512.0,524.5666666666667
256,527.0,524.5333333333333
257,528.0,524.5
258,507.0,524.1333333333333
259,492.0,524.0
260,505.0,524.2333333333333
261,525.0,523.9333333333333
262,527.0,523.7666666666667
263,506.0,523.9333333333333
264,493.0,524.0333333333333
265,510.0,524.0666666666667
266,529.0,523.9
267,527.0,523.9666666666667
268,504.0,523.9
269,485.0,524.1
270,510.0,523.9666666666667
271,524.0,523.9666666666667
272,502.0,523.9
273,501.0,523.9333333333333
274,504.0,523.3666666666667
275,518.0,523.2333333333333
276,530.0,523.4333333333333
277,532.0,523.2666666666667
278,514.0,523.3
279,497.0,523.2666666666667
280,512.0,522.7666666666667
281,528.0,523.1
282,530.0,523.1
283,510.0,523.1333333333333
284,500.0,523.2333333333333
285,510.0,523.3
286,524.0,523.2
287,528.0,523.2
288,503.0,523.3333333333334
289,489.0,523.4333333333333
290,498.0,523.6666666666666
291,527.0,523.7333333333333
292,531.0,523.8666666666667
293,511.0,523.7
294,500.0,523.4666666666667
295,513.0,523.4333333333333
296,515.0,522.9666666666667
297,529.0,523.0333333333333
298,506.0,522.9666666666667
299,498.0,522.5333333333333
300,502.0,522.8
301,532.0,523.0666666666667
302,534.0,523.4666666666667
303,512.0,523.1
304,501.0,523.2
305,508.0,523.1333333333333
306,527.0,523.0333333333333
307,526.0,522.8333333333334
308,510.0,522.8333333333334
309,496.0,522.8666666666667
310,508.0,523.0
311,522.0,522.8
312,522.0,522.5333333333333
313,509.0,522.5666666666667
314,495.0,522.7333333333333
315,505.0,522.9
316,519.0,522.7333333333333
317,525.0,522.6333333333333
318,508.0,522.4666666666667
319,498.0,522.1666666666666
320,508.0,521.8333333333334
321,534.0,522.0666666666667
322,529.0,522.0
323,504.0,522.2333333333333
324,495.0,522.4
325,512.0,522.3666666666667
326,529.0,522.8333333333334
327,530.0,522.8666666666667
328,508.0,522.8
329,483.0,523.3
330,514.0,523.0333333333333
331,534.0,523.1
332,533.0,523.0666666666667
333,509.0,523.1666666666666
334,500.0,523.2
335,510.0,523.1333333333333
336,529.0,523.2
337,533.0,523.4333333333333
338,507.0,523.5333333333333
339,494.0,523.6
340,507.0,523.6333333333333
341,523.0,523.6666666666666
342,520.0,523.6
343,510.0,523.5666666666667
344,499.0,523.4333333333333
345,502.0,523.5333333333333
346,523.0,523.6666666666666
347,527.0,523.7333333333333
348,508.0,523.7333333333333
349,495.0,523.8333333333334
350,505.0,523.9333333333333
351,512.0,523.2
352,529.0,523.2
353,510.0,523.0
354,497.0,522.9333333333333
355,510.0,523.0
356,527.0,522.9333333333333
357,530.0,522.9333333333333
358,513.0,522.8333333333334
359,497.0,522.3666666666667
360,504.0,522.5666666666667
361,519.0,522.0666666666667
362,525.0,521.8
363,508.0,521.8333333333334
364,494.0,522.0333333333333
365,507.0,522.1333333333333
366,527.0,522.0666666666667
367,530.0,521.9666666666667
368,510.0,521.8666666666667
369,496.0,521.8
370,508.0,521.7666666666667
371,518.0,521.6
372,531.0,521.9666666666667
373,511.0,521.9333333333333
374,497.0,522.0
375,509.0,521.7666666666667
376,524.0,521.8
377,529.0,521.8666666666667
378,507.0,521.9
379,491.0,522.0333333333333
380,507.0,521.9666666666667
381,526.0,522.4333333333333
382,527.0,522.3666666666667
383,505.0,522.5333333333333
384,494.0,522.6333333333333
385,507.0,522.7333333333333
386,522.0,522.5666666666667
387,525.0,522.4
388,507.0,522.5333333333333
389,493.0,522.6666666666666
390,505.0,522.6333333333333
391,522.0,522.7333333333333
392,524.0,522.7
393,506.0,522.7666666666667
394,492.0,522.8333333333334
395,504.0,522.9333333333333
396,524.0,522.8333333333334
397,523.0,522.6
398,499.0,522.9666666666667
399,488.0,523.2333333333333
400,505.0,523.3333333333334
401,523.0,523.5
402,523.0,523.2333333333333
403,496.0,523.7333333333333
404,490.0,523.9666666666667
405,517.0,524.0333333333333
406,534.0,524.3666666666667
407,534.0,524.5333333333333
408,511.0,524.4
409,495.0,524.2666666666667
410,503.0,524.4
411,521.0,524.2333333333333
412,521.0,524.0333333333333
413,501.0,524.1666666666666
414,488.0,524.3666666666667
415,495.0,524.7666666666667
416,511.0,524.4666666666667
417,514.0,524.1
418,498.0,524.4
419,485.0,524.6666666666666
420,491.0,525.1333333333333
421,504.0,525.0666666666667
422,506.0,524.8666666666667
423,489.0,525.4333333333333
424,477.0,525.9333333333333
425,485.0,526.5666666666667
426,499.0,526.6
427,504.0,526.5
428,493.0,526.7
429,480.0,526.9666666666667
430,483.0,527.7
431,496.0,527.8666666666667
432,501.0,527.8666666666667
433,487.0,528.1666666666666
434,467.0,528.9333333333333
435,464.0,530.3666666666667
436,471.0,531.0
437,472.0,531.6
438,458.0,533.3666666666667
439,440.0,535.2
440,434.0,537.5
441,438.0,539.6666666666666
442,442.0,541.7
443,429.0,544.1
444,412.0,546.6333333333333
445,411.0,549.4333333333333
446,422.0,552.4
447,431.0,555.0333333333333
448,419.0,557.6666666666666
449,397.0,560.6
450,396.0,563.7666666666667
451,415.0,566.7333333333333
452,433.0,569.1666666666666
453,436.0,570.9333333333333
454,428.0,572.5666666666667
455,436.0,574.2
456,455.0,575.6666666666666
457,475.0,576.6333333333333
458,474.0,577.2666666666667
459,457.0,578.0333333333333
460,457.0,578.9
461,473.0,579.6666666666666
462,484.0,580.2333333333333
463,476.0,580.6
464,458.0,580.9
465,454.0,581.2333333333333
466,465.0,581.4333333333334
467,475.0,581.3333333333334
468,467.0,581.0333333333333
469,442.0,580.9666666666667
470,440.0,580.7666666666667
471,461.0,580.0
472,478.0,578.8
473,461.0,577.7333333333333
474,442.0,576.7333333333333
475,447.0,575.5333333333333
476,467.0,574.0333333333333
477,476.0,572.5333333333333
478,457.0,571.2666666666667
479,436.0,569.9666666666667
480,438.0,568.5666666666667
481,465.0,566.9
482,474.0,565.5333333333333
483,452.0,565.0
484,430.0,564.9333333333333
485,435.0,564.9666666666667
486,455.0,564.9666666666667
487,469.0,565.1666666666666
488,453.0,565.8666666666667
489,434.0,566.6333333333333
490,437.0,567.3
491,458.0,567.8
492,461.0,568.5666666666667
493,448.0,569.5
494,439.0,570.1333333333333
495,446.0,570.4
496,464.0,570.4333333333333
497,474.0,570.4666666666667
498,471.0,570.3333333333334
499,462.0,569.6666666666666
500,469.0,568.7
501,488.0,567.8
502,504.0,566.9333333333333
503,504.0,565.5
504,497.0,563.6666666666666
505,502.0,561.8333333333334
506,523.0,560.7
507,541.0,560.4666666666667
508,535.0,559.4
509,525.0,557.3
510,532.0,555.5
511,557.0,555.4333333333333
512,565.0,555.9333333333333
513,555.0,555.3666666666667
514,558.0,554.1666666666666
515,565.0,553.3666666666667
516,580.0,553.7333333333333
517,598.0,555.1666666666666
518,586.0,555.6666666666666
519,581.0,555.3666666666667
520,581.0,555.1666666666666
521,592.0,556.0333333333333
522,605.0,557.4333333333333
523,596.0,558.1
524,578.0,557.8666666666667
525,582.0,558.0
526,598.0,559.2666666666667
527,606.0,561.1333333333333
528,598.0,562.6333333333333
529,591.0,563.6
530,584.0,564.5666666666667
531,591.0,566.4
532,600.0,569.0666666666667
533,590.0,571.4
534,583.0,573.2666666666667
535,582.0,575.2666666666667
536,591.0,577.5333333333333
537,601.0,579.5333333333333
538,596.0,581.5666666666666
539,586.0,583.6
540,583.0,585.3
541,592.0,586.4666666666667
542,602.0,587.7
543,595.0,589.0333333333333
544,581.0,589.8
545,582.0,590.3666666666667
546,591.0,590.7333333333333
547,599.0,590.7666666666667
548,591.0,590.9333333333334
549,577.0,590.8
550,574.0,590.5666666666666
551,583.0,590.2666666666667
552,590.0,589.7666666666667
553,580.0,589.2333333333333
554,567.0,588.8666666666667
555,561.0,588.1666666666666
556,566.0,587.1
557,573.0,586.0
558,567.0,584.9666666666667
559,550.0,583.6
560,547.0,582.3666666666667
561,552.0,581.0666666666666
562,557.0,579.6333333333333
563,547.0,578.2
564,531.0,576.4666666666667
565,526.0,574.6
566,532.0,572.6333333333333
567,535.0,570.4333333333333
568,525.0,568.0666666666667
569,507.0,565.7666666666667
570,509.0,563.5
571,520.0,561.1
572,519.0,558.3333333333334
573,512.0,555.5666666666667
574,502.0,553.6
575,508.0,551.4
576,514.0,548.8333333333334
577,519.0,546.1666666666666
578,509.0,543.6333333333333
579,496.0,542.0
580,500.0,540.3333333333334
581,514.0,538.0333333333333
582,521.0,535.7333333333333
583,514.0,533.5333333333333
584,500.0,532.1
585,502.0,530.8
586,516.0,529.1333333333333
587,534.0,527.8333333333334
588,529.0,526.5666666666667
589,522.0,525.6333333333333
590,531.0,525.1
591,549.0,525.0
592,564.0,525.2333333333333
593,560.0,525.6666666666666
594,554.0,526.4333333333333
595,568.0,527.8333333333334
596,587.0,529.6666666666666
597,599.0,531.8
598,584.0,533.7666666666667
599,572.0,535.6
600,599.0,538.4
601,623.0,541.8333333333334
602,636.0,545.7333333333333
603,629.0,549.6333333333333
604,620.0,552.9
605,626.0,556.5666666666667
606,638.0,560.7
607,639.0,564.7
608,630.0,568.5333333333333
609,611.0,571.3
610,608.0,574.1
611,620.0,577.6333333333333
612,621.0,580.9666666666667
613,601.0,583.8666666666667
614,583.0,585.8333333333334
615,580.0,587.7666666666667
616,593.0,590.3333333333334
617,592.0,592.2666666666667
618,572.0,593.7
619,549.0,594.6
620,555.0,595.4
621,566.0,595.9666666666667
622,569.0,596.1333333333333
623,552.0,595.8666666666667
624,535.0,595.2333333333333
625,538.0,594.2333333333333
626,554.0,593.1333333333333
627,557.0,591.7333333333333
628,532.0,590.0
629,510.0,588.0666666666666
630,522.0,585.5
631,537.0,582.6333333333333
632,539.0,579.4
633,516.0,575.6333333333333
634,494.0,572.6333333333333
635,507.0,569.0
636,527.0,565.3
637,541.0,562.0333333333333
638,511.0,558.1333333333333
639,479.0,555.9333333333333
640,483.0,553.7
641,508.0,550.2333333333333
642,509.0,546.7
643,496.0,544.2666666666667
644,481.0,542.9333333333333
645,488.0,541.4666666666667
646,512.0,538.7666666666667
647,513.0,536.1333333333333
648,491.0,534.8333333333334
649,477.0,534.7666666666667
650,487.0,534.1666666666666
651,509.0,532.4666666666667
652,504.0,530.8333333333334
653,482.0,530.5
654,472.0,531.0666666666667
655,476.0,531.4
656,491.0,530.7
657,504.0,529.4666666666667
658,481.0,529.8333333333334
659,465.0,531.3333333333334
660,482.0,532.0
661,502.0,531.5
662,503.0,530.9
663,478.0,531.9
664,459.0,533.0666666666667
665,470.0,534.3
666,494.0,534.4
667,496.0,533.9666666666667
668,457.0,535.7666666666667
669,455.0,536.5666666666667
670,478.0,536.7333333333333
671,490.0,537.3333333333334
672,494.0,537.8333333333334
673,476.0,538.5
674,461.0,539.1666666666666
675,475.0,539.6
676,500.0,540.0
677,502.0,540.3
678,477.0,540.7666666666667
679,451.0,541.6333333333333
680,470.0,542.2
681,503.0,542.4
682,506.0,542.3333333333334
683,481.0,542.3666666666667
684,452.0,543.0333333333333
685,474.0,543.1
686,496.0,542.9333333333333
687,498.0,543.1333333333333
688,474.0,543.3666666666667
689,460.0,543.5333333333333
690,481.0,543.5666666666667
691,499.0,543.6666666666666
692,512.0,543.3666666666667
693,489.0,543.0
694,478.0,542.3666666666667
695,495.0,541.5333333333333
696,508.0,541.0666666666667
697,502.0,540.8666666666667
698,476.0,540.2333333333333
699,467.0,539.8333333333334
700,499.0,539.1333333333333
701,526.0,538.8666666666667
702,529.0,538.8333333333334
703,512.0,537.6333333333333
704,495.0,536.5
705,495.0,535.8333333333334
706,504.0,535.7
707,507.0,535.5333333333333
708,491.0,535.0666666666667
709,475.0,534.2666666666667
710,498.0,533.3333333333334
711,526.0,533.5
712,525.0,533.7333333333333
713,499.0,533.1333333333333
714,480.0,532.2
715,489.0,531.7
716,509.0,531.2666666666667
717,509.0,530.9
718,492.0,530.3
719,484.0,529.5
720,494.0,529.0666666666667
721,517.0,528.8
722,532.0,529.4666666666667
723,516.0,528.8333333333334
724,496.0,528.2333333333333
725,498.0,528.1333333333333
726,511.0,528.0333333333333
727,518.0,527.9
728,497.0,527.2
729,488.0,526.5
730,500.0,526.4666666666667
731,522.0,526.3333333333334
732,528.0,526.3
733,509.0,526.4
734,480.0,526.9
735,464.0,527.9333333333333
736,483.0,528.6333333333333
737,483.0,529.4333333333333
738,475.0,529.9666666666667
739,470.0,530.1333333333333
740,465.0,531.2333333333333
741,460.0,532.5
742,449.0,534.1666666666666
743,430.0,536.4666666666667
744,393.0,539.3666666666667
745,380.0,543.0
746,371.0,547.6
747,361.0,552.5333333333333
748,359.0,556.9666666666667
749,341.0,561.7333333333333
750,335.0,567.0333333333333
751,349.0,572.3
752,368.0,576.4333333333334
753,372.0,580.9666666666667
754,363.0,585.4
755,370.0,589.6666666666666
756,367.0,594.4666666666667
757,408.0,597.7333333333333
758,428.0,600.0333333333333
759,448.0,601.3666666666667
760,453.0,602.9333333333334
761,451.0,604.6333333333333
762,464.0,605.7
763,481.0,606.6333333333333
764,471.0,606.9333333333334
765,487.0,606.1666666666666
766,494.0,605.8
767,500.0,605.2333333333333
768,495.0,604.5666666666666
769,489.0,603.9333333333334
770,490.0,603.1
771,484.0,602.3
772,478.0,601.3333333333334
773,493.0,599.2333333333333
774,485.0,596.1666666666666
775,485.0,592.6666666666666
776,493.0,588.6
777,498.0,584.0333333333333
778,487.0,579.7666666666667
779,479.0,575.1666666666666
780,485.0,570.1666666666666
781,491.0,565.4333333333333
782,498.0,561.1
783,513.0,556.4666666666667
784,492.0,552.1666666666666
785,483.0,548.4
786,513.0,543.6
787,526.0,540.6
788,534.0,538.5333333333333
789,540.0,537.3333333333334
790,531.0,536.0
791,534.0,534.7
792,538.0,533.9666666666667
793,544.0,534.0
794,536.0,533.4333333333333
795,530.0,533.2
796,530.0,533.2
797,534.0,533.5333333333333
798,554.0,534.3666666666667
799,554.0,535.0
800,546.0,535.4
801,538.0,535.3333333333334
802,546.0,535.3333333333334
803,550.0,535.9666666666667
804,559.0,536.6333333333333
805,553.0,537.1
806,550.0,537.7333333333333
807,550.0,538.5333333333333
808,559.0,539.2666666666667
809,545.0,539.2666666666667
810,549.0,539.6
811,560.0,540.5
812,559.0,541.6
813,567.0,543.4
814,571.0,544.7
815,572.0,545.7333333333333
816,565.0,547.4666666666667
817,546.0,548.1333333333333
818,546.0,548.5333333333333
819,568.0,549.4666666666667
820,580.0,551.1
821,566.0,552.1666666666666
822,560.0,552.9
823,552.0,553.1666666666666
824,560.0,553.9666666666667
825,576.0,555.5
826,562.0,556.5666666666667
827,543.0,556.8666666666667
828,561.0,557.1
829,569.0,557.6
830,564.0,558.2
831,555.0,558.7666666666667
832,553.0,559.0
833,548.0,558.9333333333333
834,548.0,558.5666666666667
835,575.0,559.3
836,572.0,560.0333333333333
837,557.0,560.2666666666667
838,548.0,559.9
839,548.0,560.0
840,543.0,559.8
841,546.0,559.3333333333334
842,566.0,559.5666666666667
843,561.0,559.3666666666667
844,565.0,559.1666666666666
845,574.0,559.2333333333333
846,571.0,559.4333333333333
847,556.0,559.7666666666667
848,538.0,559.5
849,546.0,558.7666666666667
850,563.0,558.2
851,570.0,558.3333333333334
852,558.0,558.2666666666667
853,546.0,558.0666666666667
854,555.0,557.9
855,573.0,557.8
856,567.0,557.9666666666667
857,543.0,557.9666666666667
858,515.0,556.4333333333333
859,526.0,555.0
860,565.0,555.0333333333333
861,591.0,556.2333333333333
862,562.0,556.5333333333333
863,536.0,556.1333333333333
864,557.0,556.4333333333333
865,581.0,556.6333333333333
866,573.0,556.6666666666666
867,543.0,556.2
868,519.0,555.2333333333333
869,515.0,554.1333333333333
870,555.0,554.5333333333333
871,586.0,555.8666666666667
872,560.0,555.6666666666666
873,523.0,554.4
874,527.0,553.1333333333333
875,563.0,552.7666666666667
876,569.0,552.7
877,532.0,551.9
878,500.0,551.4333333333333
879,537.0,551.1333333333333
880,576.0,551.5666666666667
881,578.0,551.8333333333334
882,554.0,551.7
883,523.0,550.9333333333333
884,524.0,549.9
885,555.0,549.3
886,552.0,548.8
887,539.0,548.6666666666666
888,524.0,548.9666666666667
889,525.0,548.9333333333333
890,541.0,548.1333333333333
891,541.0,546.4666666666667
892,517.0,544.9666666666667
893,509.0,544.2666666666667
894,534.0,543.5
895,561.0,542.8333333333334
896,549.0,542.0333333333333
897,516.0,541.1333333333333
898,516.0,541.0333333333333
899,545.0,542.0333333333333
900,555.0,542.0333333333333
901,548.0,540.7666666666667
902,522.0,539.5
903,501.0,539.5
904,516.0,539.1333333333333
905,549.0,538.6666666666666
906,548.0,537.9666666666667
907,513.0,537.3333333333334
908,487.0,537.7666666666667
909,519.0,537.1666666666666
910,554.0,536.4333333333333
911,555.0,535.6666666666666
912,534.0,535.0
913,517.0,534.8
914,521.0,534.7
915,536.0,534.0666666666667
916,524.0,533.1333333333333
917,509.0,532.3333333333334
918,494.0,532.5333333333333
919,507.0,532.2666666666667
920,549.0,532.5333333333333
921,553.0,532.9333333333333
922,533.0,533.4666666666667
923,517.0,533.5333333333333
924,520.0,533.0666666666667
925,527.0,531.9333333333333
926,527.0,531.2
927,509.0,531.1666666666666
928,498.0,531.5
929,518.0,530.6
930,526.0,529.6333333333333
931,511.0,528.4666666666667
932,500.0,528.5333333333333
933,514.0,528.2333333333333
934,532.0,528.7666666666667
935,543.0,528.5666666666667
936,537.0,528.2
937,519.0,528.4
938,507.0,527.7333333333333
939,523.0,527.8666666666667
940,534.0,527.2
941,517.0,525.9333333333333
942,502.0,525.5333333333333
943,497.0,525.8666666666667
944,516.0,525.7
945,531.0,525.5333333333333
946,524.0,525.5333333333333
947,520.0,525.7
948,510.0,525.1666666666666
949,502.0,525.3333333333334
950,499.0,524.5333333333333
951,516.0,523.3
952,519.0,522.8333333333334
953,494.0,523.2666666666667
954,499.0,523.4333333333333
955,525.0,523.3666666666667
956,504.0,523.1333333333333
957,499.0,523.4666666666667
958,532.0,523.6666666666666
959,544.0,524.5333333333333
960,545.0,525.1666666666666
961,531.0,525.7666666666667
962,510.0,525.4333333333333
963,493.0,526.0
964,488.0,526.1333333333333
965,506.0,525.3
966,533.0,525.1666666666666
967,498.0,525.4
968,468.0,526.7
969,523.0,526.7
970,541.0,526.9333333333333
971,526.0,527.2333333333333
972,507.0,527.0666666666667
973,519.0,526.8
974,527.0,527.1666666666666
975,525.0,526.9666666666667
976,521.0,526.8666666666667
977,503.0,526.9
978,491.0,527.5333333333333
979,503.0,527.5
980,534.0,527.8
981,530.0,528.2666666666667
982,497.0,528.5333333333333
983,488.0,528.7333333333333
984,507.0,528.4666666666667
985,530.0,528.6333333333333
986,532.0,529.0333333333333
987,508.0,528.7333333333333
988,489.0,528.8333333333334
989,503.0,528.0666666666667
990,536.0,527.7666666666667
991,536.0,527.9333333333333
992,519.0,528.1
993,500.0,527.8666666666667
994,503.0,527.3666666666667
995,518.0,527.3666666666667
996,511.0,526.7
997,488.0,527.0333333333333
998,495.0,526.1333333333333
999,522.0,526.1
1000,519.0,525.3666666666667
1001,520.0,525.1666666666666
1002,502.0,525.3333333333334
1003,487.0,525.9333333333333
1004,508.0,525.5666666666667
1005,523.0,525.5
1006,494.0,525.8
1007,465.0,527.0666666666667
1008,485.0,527.2666666666667
1009,545.0,528.0666666666667
1010,543.0,528.3666666666667
1011,521.0,528.0666666666667
1012,504.0,527.8333333333334
1013,504.0,527.3
1014,506.0,527.3333333333334
1015,515.0,526.8333333333334
1016,517.0,526.3333333333334
1017,497.0,526.7
1018,479.0,527.0333333333333
1019,496.0,527.2666666666667
1020,522.0,526.8
1021,524.0,526.4
1022,511.0,526.2
1023,489.0,526.5666666666667
1024,494.0,526.8666666666667
1025,515.0,526.7666666666667
1026,508.0,526.8666666666667
1027,487.0,526.9
1028,490.0,527.0666666666667
1029,518.0,526.9333333333333
1030,533.0,527.4
1031,522.0,527.4666666666667
1032,503.0,527.4333333333333
1033,495.0,527.1666666666666
1034,500.0,527.4333333333333
1035,507.0,527.2333333333333
1036,500.0,527.0333333333333
1037,501.0,525.8333333333334
1038,497.0,525.4333333333333
1039,504.0,524.6
1040,509.0,523.6666666666666
1041,499.0,523.8
1042,479.0,524.6333333333333
1043,495.0,524.9333333333333
1044,516.0,524.8666666666667
1045,521.0,525.0666666666667
1046,508.0,525.0333333333333
1047,495.0,525.1
1048,497.0,524.5
1049,505.0,524.2
1050,515.0,523.9666666666667
1051,510.0,523.6333333333333
1052,501.0,523.9666666666667
1053,494.0,523.8
1054,498.0,523.6666666666666
1055,511.0,523.6
1056,518.0,523.6666666666666
1057,508.0,522.9666666666667
1058,490.0,522.9666666666667
1059,485.0,523.6666666666666
1060,494.0,523.5666666666667
1061,513.0,523.2666666666667
1062,510.0,523.0333333333333
1063,495.0,523.0333333333333
1064,518.0,522.8333333333334
1065,524.0,523.0666666666667
1066,510.0,522.7333333333333
1067,496.0,522.9
1068,496.0,522.9333333333333
1069,509.0,522.7666666666667
1070,511.0,522.7
1071,509.0,522.3666666666667
1072,502.0,521.6
1073,494.0,521.6333333333333
1074,502.0,521.8333333333334
1075,508.0,521.6666666666666
1076,510.0,521.6
1077,498.0,521.5
1078,477.0,522.1666666666666
1079,489.0,522.7
1080,510.0,522.6666666666666
1081,530.0,523.2
1082,520.0,523.1
1083,506.0,522.7
1084,508.0,522.3666666666667
1085,515.0,522.4333333333333
1086,516.0,522.3666666666667
1087,501.0,522.6
1088,484.0,522.8
1089,488.0,522.7
1090,512.0,522.1
1091,520.0,522.3333333333334
1092,505.0,522.5
1093,492.0,522.6
1094,499.0,522.8333333333334
1095,511.0,522.4666666666667
1096,515.0,522.5
1097,508.0,522.1
1098,496.0,522.1
1099,490.0,522.7333333333333
1100,509.0,522.8
1101,518.0,522.9
1102,510.0,522.6333333333333
1103,494.0,522.6333333333333
1104,500.0,522.7
1105,516.0,522.7
1106,514.0,522.7
1107,505.0,522.4666666666667
1108,502.0,521.6333333333333
1109,505.0,521.1
1110,514.0,521.1
1111,512.0,520.5
1112,505.0,520.4666666666667
1113,483.0,521.2333333333333
1114,467.0,522.6
1115,502.0,522.8333333333334
1116,535.0,523.4666666666667
1117,518.0,523.3
1118,491.0,523.0666666666667
1119,487.0,523.1
1120,521.0,523.4
1121,529.0,523.7
1122,514.0,523.5333333333333
1123,500.0,523.2666666666667
1124,501.0,523.2
1125,505.0,523.4
1126,482.0,524.3
1127,476.0,525.3666666666667
1128,510.0,524.9
1129,520.0,524.4333333333333
1130,515.0,524.4333333333333
1131,486.0,525.1
1132,489.0,525.8
1133,512.0,525.2
1134,520.0,525.0666666666667
1135,523.0,525.3
1136,516.0,525.3666666666667
1137,497.0,525.6333333333333
1138,486.0,526.1666666666666
1139,496.0,526.4666666666667
1140,501.0,526.7666666666667
1141,490.0,527.5
1142,495.0,527.8333333333334
1143,508.0,527.0
1144,521.0,525.8
1145,523.0,525.8333333333334
1146,512.0,525.0666666666667
1147,500.0,525.2666666666667
1148,493.0,525.2
1149,483.0,525.3333333333334
1150,487.0,525.8666666666667
1151,507.0,525.4666666666667
1152,518.0,525.6
1153,507.0,525.3666666666667
1154,495.0,525.5666666666667
1155,508.0,525.4666666666667
1156,525.0,524.9
1157,516.0,523.8333333333334
1158,505.0,524.0
1159,503.0,524.0333333333333
1160,514.0,524.0
1161,512.0,523.1333333333333
1162,501.0,522.7333333333333
1163,486.0,523.6
1164,493.0,523.9666666666667
1165,506.0,523.8
1166,501.0,524.0333333333333
1167,496.0,524.0666666666667
1168,495.0,523.7666666666667
1169,508.0,523.3666666666667
1170,520.0,523.2666666666667
1171,516.0,522.6666666666666
1172,502.0,522.4333333333333
1173,493.0,522.9333333333333
1174,490.0,523.3666666666667
1175,495.0,523.5666666666667
1176,507.0,523.7333333333333
1177,509.0,523.4333333333333
1178,497.0,523.3
1179,506.0,522.5333333333333
1180,514.0,521.7666666666667
1181,513.0,521.6333333333333
1182,504.0,521.7
1183,497.0,522.0333333333333
1184,504.0,521.7333333333333
1185,520.0,521.8666666666667
1186,512.0,521.4333333333333
1187,498.0,521.7666666666667
1188,489.0,522.3
1189,494.0,522.6
1190,505.0,522.7666666666667
1191,509.0,522.8666666666667
1192,502.0,522.8333333333334
1193,495.0,522.5333333333333
1194,506.0,522.1
1195,512.0,521.9
1196,507.0,521.7
1197,493.0,521.8
1198,488.0,522.0333333333333
1199,507.0,522.0666666666667
1200,516.0,521.9333333333333
1201,515.0,521.9
1202,505.0,521.8
1203,495.0,521.7333333333333
1204,509.0,521.1
1205,521.0,520.8333333333334
1206,510.0,520.7333333333333
1207,500.0,521.0333333333333
1208,490.0,521.2666666666667
1209,487.0,521.9
1210,484.0,522.7666666666667
1211,506.0,522.9333333333333
1212,529.0,523.2333333333333
1213,523.0,523.1
1214,519.0,523.0666666666667
1215,516.0,522.9333333333333
1216,508.0,523.0666666666667
1217,502.0,522.9333333333333
1218,497.0,522.6666666666666
1219,503.0,522.3666666666667
1220,516.0,522.2666666666667
1221,512.0,522.1666666666666
1222,497.0,522.3333333333334
1223,486.0,522.6333333333333
1224,483.0,523.4
1225,506.0,523.6
1226,519.0,523.6666666666666
1227,505.0,523.2666666666667
1228,512.0,522.4666666666667
1229,516.0,522.4333333333333
1230,515.0,522.4
1231,504.0,522.5666666666667
1232,499.0,522.7666666666667
1233,502.0,522.5333333333333
1234,510.0,522.5
1235,513.0,522.2333333333333
1236,507.0,522.3333333333334
1237,500.0,522.3333333333334
1238,490.0,522.3333333333334
1239,495.0,522.0666666666667
1240,508.0,521.2666666666667
1241,498.0,521.5333333333333
1242,491.0,521.6666666666666
1243,509.0,521.4
1244,530.0,521.7666666666667
1245,530.0,522.2333333333333
1246,520.0,522.3666666666667
1247,506.0,522.2333333333333
1248,494.0,522.3333333333334
1249,492.0,522.7
1250,499.0,523.0
1251,514.0,523.0666666666667
1252,513.0,522.6
1253,507.0,521.9
1254,507.0,521.1
1255,510.0,520.9666666666667
1256,506.0,520.9333333333333
1257,496.0,521.2333333333333
1258,493.0,521.8666666666667
1259,504.0,522.0
1260,513.0,521.9333333333333
1261,517.0,521.8333333333334
1262,512.0,521.4
1263,500.0,521.4666666666667
1264,497.0,521.9
1265,498.0,522.3333333333334
1266,496.0,522.7
1267,498.0,522.7666666666667
1268,511.0,522.0666666666667
1269,513.0,521.5333333333333
1270,519.0,521.6333333333333
1271,514.0,521.2333333333333
1272,506.0,520.7333333333333
1273,500.0,521.0333333333333
1274,505.0,520.6666666666666
1275,501.0,520.4333333333333
1276,507.0,520.3333333333334
1277,520.0,520.4
1278,511.0,519.8333333333334
1279,505.0,519.4
1280,506.0,519.1666666666666
1281,507.0,519.2666666666667
1282,508.0,519.3666666666667
1283,506.0,519.4
1284,504.0,519.5
1285,500.0,519.8333333333334
1286,506.0,519.8333333333334
1287,509.0,519.4
1288,506.0,518.9666666666667
1289,505.0,518.9333333333333
1290,505.0,519.1333333333333
1291,508.0,519.1
1292,500.0,519.5
1293,493.0,519.7333333333333
1294,509.0,519.3333333333334
1295,514.0,518.9333333333333
1296,508.0,518.5333333333333
1297,499.0,518.5
1298,496.0,519.0
1299,500.0,519.3666666666667
1300,506.0,519.3333333333334
1301,510.0,519.3333333333334
1302,508.0,519.2666666666667
1303,505.0,519.1
1304,512.0,518.8666666666667
1305,517.0,518.6666666666666
1306,509.0,518.6
1307,498.0,518.8
1308,496.0,519.3
1309,509.0,519.1666666666666
1310,516.0,519.1
1311,512.0,518.9333333333333
1312,506.0,519.0
1313,502.0,519.1333333333333
1314,502.0,519.2
1315,510.0,518.8666666666667
1316,514.0,518.7333333333333
1317,513.0,518.6666666666666
1318,511.0,518.5
1319,511.0,518.3
1320,514.0,518.1333333333333
1321,510.0,518.0666666666667
1322,502.0,518.0
1323,502.0,517.7
1324,504.0,517.8666666666667
1325,504.0,518.0666666666667
1326,508.0,518.0666666666667
1327,510.0,517.7
1328,503.0,517.4666666666667
1329,498.0,517.5333333333333
1330,500.0,517.7333333333333
1331,502.0,518.0
1332,507.0,518.0333333333333
1333,512.0,517.8
1334,515.0,517.9
1335,512.0,517.7333333333333
1336,514.0,517.7
1337,508.0,517.3666666666667
1338,500.0,517.2333333333333
1339,503.0,517.4333333333333
1340,511.0,517.3333333333334
1341,506.0,517.5333333333333
1342,497.0,517.8333333333334
1343,499.0,517.9333333333333
1344,513.0,517.6333333333333
1345,518.0,517.7666666666667
1346,512.0,517.7
1347,502.0,518.0
1348,498.0,518.4333333333333
1349,508.0,518.5333333333333
1350,519.0,518.7
1351,516.0,518.7666666666667
1352,508.0,518.5666666666667
1353,505.0,518.4666666666667
1354,506.0,518.4
1355,511.0,518.1666666666666
1356,509.0,518.1333333333333
1357,497.0,518.5666666666667
1358,491.0,518.9666666666667
1359,498.0,518.9666666666667
1360,515.0,518.6666666666666
1361,528.0,518.8666666666667
1362,516.0,518.8333333333334
1363,502.0,519.1666666666666
1364,499.0,519.5
1365,512.0,519.5
1366,521.0,519.7333333333333
1367,515.0,519.7
1368,505.0,519.5333333333333
1369,502.0,519.5666666666667
1370,508.0,519.6666666666666
1371,510.0,519.5333333333333
1372,496.0,519.5666666666667
1373,496.0,519.6666666666666
1374,510.0,519.7
1375,520.0,519.7666666666667
1376,518.0,519.9666666666667
1377,508.0,519.7666666666667
1378,509.0,519.4
1379,511.0,519.3
1380,507.0,519.2333333333333
1381,503.0,519.4
1382,503.0,519.5666666666667
1383,508.0,519.4666666666667
1384,516.0,519.4
1385,516.0,519.5
1386,511.0,519.4333333333333
1387,501.0,519.3
1388,497.0,519.1
1389,507.0,518.8
1390,512.0,518.7
1391,505.0,518.4
1392,493.0,518.9
1393,506.0,518.7666666666667
1394,516.0,518.4666666666667
1395,522.0,518.8
1396,515.0,518.6
1397,502.0,518.8333333333334
1398,498.0,519.0666666666667
1399,510.0,518.8
1400,519.0,518.9
1401,521.0,519.1333333333333
1402,513.0,518.6333333333333
1403,499.0,518.5333333333333
1404,505.0,518.7
1405,513.0,518.4666666666667
1406,511.0,518.3
1407,510.0,518.2333333333333
1408,510.0,518.2
1409,511.0,518.2
1410,509.0,518.1333333333333
1411,505.0,518.0666666666667
1412,508.0,517.9
1413,510.0,517.8333333333334
1414,515.0,517.8
1415,509.0,517.7666666666667
1416,506.0,517.9333333333333
1417,496.0,518.1
1418,505.0,517.8333333333334
1419,509.0,517.7666666666667
1420,511.0,517.8
1421,505.0,517.8
1422,505.0,517.4
1423,505.0,517.4333333333333
1424,518.0,517.5
1425,522.0,517.5
1426,518.0,517.6
1427,510.0,517.3333333333334
1428,505.0,517.1
1429,509.0,517.1333333333333
1430,513.0,516.9333333333333
1431,509.0,516.7333333333333
1432,502.0,517.0333333333333
1433,501.0,516.9666666666667
1434,503.0,517.0333333333333
1435,502.0,517.3333333333334
1436,500.0,517.7
1437,510.0,517.7
1438,509.0,517.7333333333333
1439,504.0,517.9666666666667
1440,505.0,518.1
1441,514.0,517.9333333333333
1442,509.0,517.9
1443,507.0,518.0
1444,512.0,517.9
1445,517.0,517.9666666666667
1446,509.0,517.8666666666667
1447,501.0,517.7
1448,504.0,517.7333333333333
1449,511.0,517.6666666666666
1450,512.0,517.6333333333333
1451,510.0,517.4666666666667
1452,512.0,517.2333333333333
1453,515.0,517.1
1454,514.0,516.9666666666667
1455,512.0,516.6333333333333
1456,508.0,516.5666666666667
1457,496.0,517.0333333333333
1458,495.0,517.3666666666667
1459,504.0,517.5333333333333
1460,513.0,517.5333333333333
1461,517.0,517.6
1462,513.0,517.3
1463,513.0,516.9666666666667
1464,516.0,516.8
1465,515.0,516.5666666666667
1466,508.0,516.3
1467,497.0,516.7333333333333
1468,507.0,516.8
1469,518.0,516.7333333333333
1470,511.0,516.5333333333333
1471,506.0,516.6666666666666
1472,512.0,516.5666666666667
1473,516.0,516.5333333333333
1474,521.0,516.8333333333334
1475,520.0,516.9333333333333
1476,506.0,517.0333333333333
1477,503.0,516.9666666666667
1478,511.0,516.7333333333333
1479,513.0,516.7333333333333
1480,515.0,516.8333333333334
1481,511.0,516.8
1482,505.0,517.0333333333333
1483,505.0,517.1666666666666
1484,511.0,517.1333333333333
1485,510.0,517.2
1486,509.0,517.1666666666666
1487,507.0,516.8
1488,506.0,516.4333333333333
1489,509.0,516.2666666666667
1490,510.0,516.3
1491,512.0,516.1333333333333
1492,510.0,516.1666666666666
1493,511.0,516.1666666666666
1494,514.0,516.1
1495,512.0,516.0
1496,508.0,516.0
1497,505.0,515.7333333333333
1498,504.0,515.8333333333334
1499,513.0,515.6666666666666
1500,521.0,515.9333333333333
1501,515.0,515.8333333333334
1502,502.0,516.1666666666666
1503,495.0,516.6
1504,504.0,516.5666666666667
1505,520.0,516.5666666666667
1506,517.0,516.5333333333333
1507,506.0,516.4333333333333
1508,505.0,516.6333333333333
1509,505.0,516.8333333333334
1510,511.0,516.7666666666667
1511,515.0,516.8333333333334
1512,511.0,516.6333333333333
1513,507.0,516.5666666666667
1514,511.0,516.5666666666667
1515,516.0,516.6333333333333
1516,510.0,516.6
1517,501.0,516.8
1518,509.0,516.7
1519,519.0,516.8333333333334
1520,516.0,516.9
1521,514.0,516.9666666666667
1522,509.0,517.0
1523,511.0,517.0
1524,512.0,516.9333333333333
1525,508.0,517.0666666666667
1526,510.0,517.0
1527,505.0,517.0
1528,511.0,516.7666666666667
1529,517.0,516.9
1530,515.0,516.7
1531,507.0,516.7666666666667
1532,503.0,516.7333333333333
1533,505.0,516.4
1534,519.0,516.3666666666667
1535,514.0,516.1666666666666
1536,513.0,516.0333333333333
1537,511.0,515.8666666666667
1538,515.0,515.7333333333333
1539,514.0,515.5666666666667
1540,508.0,515.6666666666666
1541,499.0,516.0
1542,499.0,516.4
1543,514.0,516.3
1544,517.0,516.4333333333333
1545,511.0,516.3333333333334
1546,504.0,516.5333333333333
1547,512.0,516.1666666666666
1548,517.0,516.2333333333333
1549,518.0,516.2
1550,514.0,516.1333333333333
1551,506.0,516.2666666666667
1552,494.0,516.7666666666667
1553,495.0,517.3
1554,511.0,517.3333333333334
1555,519.0,517.4333333333333
1556,516.0,517.5
1557,506.0,517.4666666666667
1558,509.0,517.5333333333333
1559,512.0,517.3666666666667
1560,510.0,517.3333333333334
1561,504.0,517.4333333333333
1562,499.0,517.5666666666667
1563,501.0,517.7
1564,506.0,517.6666666666666
1565,513.0,517.6333333333333
1566,509.0,517.7
1567,508.0,517.8
1568,509.0,517.8
1569,519.0,517.9666666666667
1570,519.0,518.0666666666667
1571,513.0,517.6666666666666
1572,503.0,517.5333333333333
1573,503.0,517.7666666666667
1574,518.0,517.8
1575,520.0,518.0333333333333
1576,504.0,518.0333333333333
1577,503.0,518.3333333333334
1578,506.0,518.3666666666667
1579,510.0,518.2333333333333
1580,510.0,518.2333333333333
1581,510.0,518.1
1582,509.0,517.6
1583,515.0,517.1333333333333
1584,520.0,517.3666666666667
1585,512.0,517.1333333333333
1586,507.0,517.1666666666666
1587,506.0,517.1666666666666
1588,508.0,517.2
1589,513.0,517.2333333333333
1590,509.0,517.2666666666667
1591,494.0,517.6
1592,487.0,518.0
1593,508.0,517.7666666666667
1594,527.0,518.0666666666667
1595,531.0,518.6666666666666
1596,519.0,518.8
1597,500.0,519.0666666666667
1598,503.0,519.2666666666667
1599,515.0,519.1333333333333
1600,523.0,519.2666666666667
1601,517.0,519.4
1602,506.0,519.3
1603,505.0,519.2333333333333
1604,511.0,519.0666666666667
1605,519.0,519.0333333333333
1606,513.0,518.8
1607,503.0,518.8
1608,492.0,519.2666666666667
1609,494.0,519.8
1610,512.0,519.7333333333333
1611,521.0,519.9666666666667
1612,521.0,520.1666666666666
1613,520.0,520.3333333333334
1614,521.0,520.3666666666667
1615,517.0,520.5333333333333
1616,505.0,520.6
1617,500.0,520.8
1618,509.0,520.7666666666667
1619,516.0,520.8666666666667
1620,516.0,520.9
1621,513.0,520.3333333333334
1622,507.0,519.6666666666666
1623,506.0,519.7333333333333
1624,504.0,519.5
1625,504.0,519.1333333333333
1626,503.0,519.2
1627,507.0,518.9666666666667
1628,516.0,518.8
1629,521.0,519.0
1630,511.0,518.6666666666666
1631,502.0,518.8333333333334
1632,504.0,518.9
1633,508.0,518.8
1634,518.0,518.9666666666667
1635,519.0,518.9666666666667
1636,507.0,519.1
1637,503.0,519.1
1638,514.0,518.5
1639,514.0,517.9666666666667
1640,516.0,518.1
1641,510.0,517.8666666666667
1642,502.0,517.9
1643,506.0,517.8333333333334
1644,505.0,517.7666666666667
1645,496.0,518.1333333333333
1646,486.0,518.7666666666667
1647,504.0,518.6333333333333
1648,524.0,518.9333333333333
1649,527.0,519.3
1650,522.0,519.5
1651,508.0,519.6
1652,499.0,519.8666666666667
1653,507.0,519.8333333333334
1654,512.0,519.5666666666667
1655,504.0,519.5666666666667
1656,498.0,519.7333333333333
1657,500.0,519.9666666666667
1658,507.0,520.0
1659,507.0,519.8666666666667
1660,508.0,519.9666666666667
1661,504.0,519.9
1662,506.0,519.8333333333334
1663,523.0,520.0666666666667
1664,532.0,520.5333333333333
1665,517.0,520.4666666666667
1666,506.0,520.5
1667,502.0,520.5333333333333
1668,512.0,520.4666666666667
1669,518.0,520.6
1670,516.0,520.6
1671,510.0,520.6
1672,509.0,520.3666666666667
1673,506.0,520.3666666666667
1674,502.0,520.4666666666667
1675,508.0,520.0666666666667
1676,510.0,519.2666666666667
1677,508.0,519.1333333333333
1678,513.0,518.7666666666667
1679,517.0,518.4333333333333
1680,518.0,518.3
1681,516.0,518.3
1682,512.0,517.8666666666667
1683,514.0,517.7666666666667
1684,515.0,517.8666666666667
1685,507.0,517.7666666666667
1686,509.0,517.4
1687,508.0,517.1333333333333
1688,511.0,517.0
1689,518.0,517.0333333333333
1690,519.0,517.1333333333333
1691,512.0,516.8666666666667
1692,504.0,516.9333333333333
1693,503.0,516.8666666666667
1694,517.0,516.3666666666667
1695,518.0,516.4
1696,511.0,516.2333333333333
1697,508.0,516.0333333333333
1698,512.0,516.0333333333333
1699,519.0,516.0666666666667
1700,513.0,515.9666666666667
1701,497.0,516.4
1702,498.0,516.7666666666667
1703,512.0,516.5666666666667
1704,522.0,516.5666666666667
1705,518.0,516.6333333333333
1706,507.0,516.7333333333333
1707,509.0,516.7
1708,513.0,516.7
1709,513.0,516.5666666666667
1710,513.0,516.4
1711,504.0,516.5333333333333
1712,501.0,516.9
1713,510.0,516.9
1714,525.0,517.2333333333333
1715,518.0,517.2666666666667
1716,507.0,517.3333333333334
1717,497.0,517.7
1718,502.0,518.0
1719,515.0,517.9
1720,524.0,518.0666666666667
1721,512.0,518.0666666666667
1722,507.0,517.9666666666667
1723,514.0,517.7333333333333
1724,521.0,517.8666666666667
1725,517.0,517.8333333333334
1726,504.0,518.0666666666667
1727,495.0,518.5
1728,505.0,518.7333333333333
1729,518.0,518.7
1730,521.0,518.9666666666667
1731,509.0,518.5666666666667
1732,499.0,518.5333333333333
1733,508.0,518.6666666666666
1734,521.0,518.6333333333333
1735,507.0,518.6
1736,490.0,519.1666666666666
1737,511.0,519.1
1738,524.0,519.4666666666667
1739,530.0,520.0333333333333
1740,520.0,520.2666666666667
1741,505.0,520.2333333333333
1742,499.0,520.3
1743,507.0,520.4
1744,513.0,520.0
1745,523.0,520.1666666666666
1746,511.0,520.0333333333333
1747,506.0,519.7333333333333
1748,513.0,519.4333333333333
1749,518.0,519.5333333333333
