Action_Label,lifting_cup_7s
Fs_Hz,250
Total_Samples,1750

Sample_Index,Raw_EMG,Envelope
0,501.0,524.8333333333334
1,491.0,524.5
2,509.0,524.4333333333333
3,530.0,524.4666666666667
4,527.0,524.7666666666667
5,503.0,525.0
6,488.0,525.4
7,505.0,525.6333333333333
8,525.0,525.6
9,529.0,525.6
10,505.0,525.6
11,481.0,525.9333333333333
12,497.0,526.3
13,525.0,526.1666666666666
14,528.0,526.3666666666667
15,504.0,526.3333333333334
16,483.0,526.6333333333333
17,506.0,526.6333333333333
18,527.0,526.5666666666667
19,525.0,526.6333333333333
20,496.0,526.8
21,480.0,527.2666666666667
22,503.0,527.4666666666667
23,531.0,527.3
24,530.0,527.3333333333334
25,495.0,527.6
26,482.0,527.7666666666667
27,498.0,528.0
28,528.0,527.9
29,526.0,527.8666666666667
30,504.0,527.7666666666667
31,494.0,527.6666666666666
32,495.0,528.1333333333333
33,539.0,528.4333333333333
34,536.0,528.7333333333333
35,498.0,528.9
36,489.0,528.8666666666667
37,504.0,528.9
38,530.0,529.0666666666667
39,532.0,529.1666666666666
40,501.0,529.3
41,487.0,529.1
42,506.0,528.8
43,529.0,528.9333333333333
44,529.0,528.9666666666667
45,501.0,529.0666666666667
46,489.0,528.8666666666667
47,508.0,528.8
48,528.0,528.8333333333334
49,524.0,528.8
50,489.0,529.0333333333333
51,488.0,528.7666666666667
52,502.0,528.8
53,536.0,528.9666666666667
54,535.0,529.1333333333333
55,507.0,528.7333333333333
56,494.0,528.3333333333334
57,508.0,528.0
58,526.0,527.9333333333333
59,523.0,527.8333333333334
60,496.0,528.1
61,483.0,528.4666666666667
62,503.0,528.2
63,533.0,528.0
64,524.0,527.6
65,509.0,527.2333333333333
66,489.0,527.2333333333333
67,509.0,527.0666666666667
68,530.0,527.0666666666667
69,528.0,526.9333333333333
70,502.0,526.9
71,487.0,526.9
72,503.0,527.0
73,519.0,526.6666666666666
74,527.0,526.6
75,507.0,526.4
76,484.0,526.5666666666667
77,495.0,527.0
78,511.0,526.5
79,531.0,526.7333333333333
80,512.0,525.9666666666667
81,500.0,525.5666666666667
82,514.0,525.3
83,526.0,524.9666666666667
84,528.0,524.7333333333333
85,508.0,524.7
86,493.0,524.7333333333333
87,511.0,524.6333333333333
88,529.0,524.7333333333333
89,525.0,524.8
90,500.0,524.6666666666666
91,483.0,524.6666666666666
92,502.0,524.7
93,523.0,524.3666666666667
94,523.0,524.3333333333334
95,499.0,524.6666666666666
96,497.0,524.4
97,510.0,524.3666666666667
98,525.0,524.2
99,534.0,524.4
100,504.0,524.3333333333334
101,483.0,524.4666666666667
102,498.0,524.6333333333333
103,542.0,525.4
104,535.0,525.6666666666666
105,507.0,525.6666666666666
106,489.0,525.5
107,502.0,525.2666666666667
108,528.0,525.7666666666667
109,527.0,525.6333333333333
110,508.0,525.7666666666667
111,494.0,525.9666666666667
112,507.0,526.0666666666667
113,529.0,526.1666666666666
114,529.0,526.2
115,501.0,526.4333333333333
116,488.0,526.6
117,508.0,526.7
118,529.0,526.7
119,526.0,526.7333333333333
120,497.0,526.8333333333334
121,490.0,526.6
122,507.0,526.4333333333333
123,524.0,526.4666666666667
124,530.0,526.7
125,495.0,526.8333333333334
126,478.0,527.4666666666667
127,513.0,527.4333333333333
128,542.0,528.0
129,536.0,528.0666666666667
130,511.0,527.8333333333334
131,492.0,527.5333333333333
132,509.0,527.1666666666666
133,532.0,526.8333333333334
134,528.0,526.6
135,499.0,526.8666666666667
136,483.0,527.0666666666667
137,496.0,527.2666666666667
138,526.0,527.2
139,529.0,527.2666666666667
140,507.0,527.3
141,494.0,527.3
142,506.0,527.3333333333334
143,532.0,527.4333333333333
144,530.0,527.4666666666667
145,509.0,527.2
146,493.0,527.0333333333333
147,491.0,527.6
148,520.0,527.3
149,522.0,527.1666666666666
150,505.0,526.9
151,496.0,526.7
152,511.0,526.5666666666667
153,532.0,526.8333333333334
154,532.0,526.9
155,506.0,526.5333333333333
156,491.0,526.1
157,509.0,526.1666666666666
158,527.0,525.6666666666666
159,534.0,525.6
160,503.0,525.8666666666667
161,484.0,526.1333333333333
162,506.0,526.2333333333333
163,526.0,526.0333333333333
164,530.0,526.1
165,499.0,526.1
166,487.0,525.9666666666667
167,505.0,525.6666666666666
168,532.0,525.8666666666667
169,531.0,525.9333333333333
170,502.0,526.1
171,487.0,526.3333333333334
172,514.0,526.2
173,532.0,526.2
174,531.0,526.2333333333333
175,498.0,526.6
176,483.0,526.9333333333333
177,505.0,526.4666666666667
178,520.0,526.4666666666667
179,536.0,526.9333333333333
180,511.0,526.7333333333333
181,497.0,526.7
182,505.0,526.9
183,527.0,526.7333333333333
184,532.0,526.7333333333333
185,507.0,526.7
186,488.0,526.8
187,505.0,526.9333333333333
188,527.0,526.9333333333333
189,527.0,526.7
190,504.0,526.6666666666666
191,489.0,526.5
192,504.0,526.5666666666667
193,535.0,526.8666666666667
194,531.0,526.9
195,503.0,526.7666666666667
196,489.0,526.7
197,501.0,526.8333333333334
198,508.0,526.3
199,513.0,525.7
200,508.0,525.5
201,504.0,524.9333333333333
202,519.0,525.1
203,532.0,525.1
204,529.0,525.0333333333333
205,502.0,524.9
206,484.0,524.8666666666667
207,503.0,524.9333333333333
208,526.0,525.1333333333333
209,521.0,524.6333333333333
210,504.0,524.8666666666667
211,497.0,524.8666666666667
212,510.0,524.7
213,532.0,524.8666666666667
214,530.0,524.8
215,506.0,524.8333333333334
216,492.0,524.7
217,511.0,524.5
218,524.0,524.4
219,531.0,524.5333333333333
220,505.0,524.5
221,492.0,524.4
222,508.0,524.2666666666667
223,529.0,524.0666666666667
224,528.0,523.9666666666667
225,502.0,524.0
226,488.0,524.0333333333333
227,503.0,523.9666666666667
228,526.0,524.3
229,528.0,524.8
230,505.0,524.9
231,490.0,525.3666666666667
232,505.0,525.3666666666667
233,530.0,525.3
234,527.0,525.2333333333333
235,502.0,525.2333333333333
236,489.0,525.0666666666667
237,504.0,525.0333333333333
238,526.0,525.0333333333333
239,529.0,525.3
240,504.0,525.3
241,489.0,525.5666666666667
242,501.0,525.8666666666667
243,525.0,525.6333333333333
244,527.0,525.5333333333333
245,499.0,525.7666666666667
246,479.0,526.2
247,499.0,526.6
248,525.0,526.6333333333333
249,524.0,526.4
250,496.0,526.7
251,489.0,526.8
252,500.0,527.0666666666667
253,520.0,526.7666666666667
254,526.0,526.7
255,498.0,526.8333333333334
256,485.0,526.9333333333333
257,498.0,527.1
258,518.0,526.8333333333334
259,517.0,526.4666666666667
260,494.0,526.8333333333334
261,480.0,527.1666666666666
262,491.0,527.6333333333333
263,506.0,527.2333333333333
264,512.0,526.7333333333333
265,484.0,527.3333333333334
266,464.0,528.1666666666666
267,475.0,529.1333333333333
268,497.0,529.1666666666666
269,492.0,529.2666666666667
270,455.0,530.9
271,429.0,532.9
272,432.0,535.2
273,439.0,537.2
274,422.0,539.7
275,372.0,543.9333333333333
276,335.0,548.7333333333333
277,324.0,554.5666666666667
278,344.0,559.7333333333333
279,358.0,564.4666666666667
280,337.0,569.7666666666667
281,316.0,575.5333333333333
282,314.0,581.7333333333333
283,336.0,587.3333333333334
284,331.0,592.9
285,280.0,600.1666666666666
286,254.0,607.8666666666667
287,246.0,616.2666666666667
288,261.0,624.4333333333334
289,261.0,632.6333333333333
290,232.0,641.3666666666667
291,201.0,650.6666666666666
292,227.0,659.4666666666667
293,270.0,667.3333333333334
294,290.0,674.7333333333333
295,287.0,681.3
296,277.0,687.5333333333333
297,303.0,693.2666666666667
298,342.0,698.4333333333334
299,360.0,702.8333333333334
300,348.0,706.4
301,342.0,709.3
302,364.0,711.5666666666666
303,400.0,712.8666666666667
304,418.0,713.0
305,405.0,711.9
306,391.0,710.0333333333333
307,410.0,707.1666666666666
308,444.0,703.8333333333334
309,465.0,700.2666666666667
310,442.0,696.7666666666667
311,434.0,692.8333333333334
312,463.0,687.8666666666667
313,498.0,682.4666666666667
314,530.0,677.0333333333333
315,517.0,669.4666666666667
316,503.0,661.1666666666666
317,530.0,652.9
318,574.0,646.6
319,598.0,641.1
320,586.0,634.2333333333333
321,577.0,626.0333333333333
322,606.0,619.6666666666666
323,653.0,616.3
324,682.0,614.5666666666666
325,677.0,612.5666666666666
326,673.0,610.1
327,704.0,609.5333333333333
328,751.0,611.8333333333334
329,778.0,615.6333333333333
330,768.0,618.7
331,762.0,621.3666666666667
332,794.0,625.8333333333334
333,828.0,632.6333333333333
334,832.0,640.1666666666666
335,794.0,646.0
336,753.0,650.0
337,730.0,653.8666666666667
338,719.0,658.5
339,681.0,662.5666666666666
340,618.0,663.7666666666667
341,592.0,663.8333333333334
342,600.0,665.1333333333333
343,617.0,668.1666666666666
344,612.0,670.9
345,576.0,672.8666666666667
346,550.0,673.8333333333334
347,570.0,675.1666666666666
348,601.0,676.0666666666666
349,599.0,676.1
350,577.0,675.8
351,556.0,675.1
352,577.0,674.1333333333333
353,610.0,672.7
354,596.0,669.8333333333334
355,566.0,666.1333333333333
356,552.0,662.1
357,581.0,658.0
358,608.0,653.2333333333333
359,608.0,647.5666666666666
360,569.0,640.9333333333334
361,543.0,633.6333333333333
362,563.0,625.9333333333334
363,598.0,618.2666666666667
364,598.0,610.4666666666667
365,560.0,602.6666666666666
366,540.0,595.5666666666666
367,563.0,590.0
368,591.0,585.7333333333333
369,590.0,582.7
370,551.0,580.4666666666667
371,523.0,578.1666666666666
372,555.0,576.6666666666666
373,592.0,575.8333333333334
374,591.0,575.1333333333333
375,547.0,574.1666666666666
376,529.0,573.4666666666667
377,561.0,573.1666666666666
378,584.0,572.6
379,566.0,571.5
380,544.0,570.4
381,535.0,569.7
382,557.0,569.0333333333333
383,596.0,568.5666666666667
384,585.0,568.2
385,536.0,567.2
386,506.0,566.0666666666667
387,521.0,564.0666666666667
388,545.0,561.9666666666667
389,535.0,559.5333333333333
390,484.0,558.5666666666667
391,455.0,559.4333333333333
392,470.0,559.1333333333333
393,497.0,556.7666666666667
394,481.0,554.9333333333333
395,439.0,555.7666666666667
396,424.0,557.7666666666667
397,445.0,558.3
398,455.0,557.5666666666667
399,455.0,556.8666666666667
400,403.0,559.2
401,362.0,563.8333333333334
402,379.0,566.8333333333334
403,389.0,568.2666666666667
404,369.0,570.4
405,339.0,575.0
406,319.0,580.8666666666667
407,329.0,585.3333333333334
408,358.0,588.0666666666666
409,349.0,591.7
410,300.0,597.7
411,269.0,605.0333333333333
412,279.0,611.3
413,302.0,615.5
414,301.0,620.1
415,258.0,627.7666666666667
416,229.0,637.0
417,244.0,645.6333333333333
418,270.0,652.6
419,269.0,659.9333333333334
420,229.0,668.4333333333334
421,215.0,676.4333333333334
422,241.0,684.0666666666666
423,281.0,691.2666666666667
424,289.0,697.6666666666666
425,254.0,703.8333333333334
426,227.0,710.4
427,251.0,716.8666666666667
428,288.0,722.4333333333334
429,300.0,727.6
430,262.0,732.3
431,255.0,735.8666666666667
432,274.0,739.3666666666667
433,325.0,741.5
434,335.0,742.6333333333333
435,303.0,743.8333333333334
436,286.0,744.9333333333334
437,312.0,745.5
438,348.0,745.8333333333334
439,358.0,745.5333333333333
440,332.0,744.4666666666667
441,315.0,742.9333333333334
442,352.0,740.5
443,395.0,737.4
444,411.0,733.7333333333333
445,376.0,729.8
446,358.0,725.5
447,389.0,720.6666666666666
448,437.0,715.1
449,456.0,708.8666666666667
450,414.0,702.7
451,396.0,696.6666666666666
452,422.0,690.6333333333333
453,479.0,684.0333333333333
454,492.0,677.2666666666667
455,441.0,671.0333333333333
456,436.0,664.0666666666666
457,475.0,656.6
458,520.0,649.4
459,531.0,642.9666666666667
460,497.0,635.1333333333333
461,489.0,627.3333333333334
462,538.0,620.2666666666667
463,589.0,616.6
464,602.0,613.7
465,577.0,608.9
466,560.0,602.9666666666667
467,593.0,599.0
468,643.0,597.9
469,637.0,596.9333333333334
470,601.0,593.9
471,589.0,589.9
472,623.0,588.2666666666667
473,659.0,589.2666666666667
474,655.0,590.6666666666666
475,611.0,589.4333333333334
476,575.0,586.4
477,608.0,585.5
478,662.0,588.0
479,664.0,591.2
480,633.0,591.9666666666667
481,608.0,591.3
482,641.0,592.6
483,690.0,597.4333333333334
484,687.0,602.6
485,641.0,604.5333333333333
486,618.0,605.5333333333333
487,647.0,608.8
488,668.0,613.7333333333333
489,643.0,617.4666666666667
490,591.0,619.6
491,579.0,621.0666666666666
492,607.0,623.3666666666667
493,643.0,625.1666666666666
494,647.0,626.6666666666666
495,609.0,627.7333333333333
496,594.0,628.8666666666667
497,626.0,629.9666666666667
498,646.0,630.0666666666666
499,649.0,630.4666666666667
500,610.0,630.7666666666667
501,593.0,630.9
502,619.0,630.7666666666667
503,648.0,630.4
504,642.0,629.9666666666667
505,598.0,629.5333333333333
506,575.0,629.5333333333333
507,596.0,629.1333333333333
508,622.0,627.8
509,601.0,625.7
510,560.0,623.2666666666667
511,561.0,621.7
512,580.0,619.6666666666666
513,601.0,616.7
514,593.0,613.5666666666666
515,549.0,610.5
516,545.0,608.0666666666666
517,566.0,605.3666666666667
518,605.0,603.2666666666667
519,604.0,601.9666666666667
520,567.0,601.1666666666666
521,557.0,600.4333333333334
522,567.0,599.1
523,593.0,597.4333333333334
524,579.0,595.1666666666666
525,540.0,592.8666666666667
526,531.0,590.7666666666667
527,559.0,588.5333333333333
528,586.0,586.5333333333333
529,565.0,583.7333333333333
530,519.0,580.7
531,506.0,578.2
532,535.0,575.4
533,537.0,571.7
534,503.0,567.6666666666666
535,511.0,564.8333333333334
536,530.0,563.3333333333334
537,550.0,561.8
538,578.0,560.3333333333334
539,568.0,559.2333333333333
540,523.0,558.0
541,507.0,556.5333333333333
542,541.0,555.2333333333333
543,564.0,554.0
544,551.0,552.6
545,521.0,551.6666666666666
546,507.0,550.7333333333333
547,523.0,549.3
548,532.0,546.8666666666667
549,528.0,544.3333333333334
550,513.0,542.5333333333333
551,510.0,541.1
552,532.0,539.9333333333333
553,555.0,538.6666666666666
554,550.0,537.7
555,536.0,537.5666666666667
556,539.0,537.8333333333334
557,571.0,538.2333333333333
558,594.0,538.5
559,597.0,539.5666666666667
560,581.0,541.6333333333333
561,575.0,543.5333333333333
562,584.0,545.1666666666666
563,592.0,547.0
564,579.0,548.9333333333333
565,581.0,551.2
566,586.0,553.0666666666667
567,604.0,554.8666666666667
568,620.0,556.2666666666667
569,618.0,557.9333333333333
570,594.0,560.3
571,577.0,562.3
572,589.0,563.9
573,605.0,565.2666666666667
574,599.0,566.8666666666667
575,591.0,569.2
576,587.0,571.5333333333333
577,595.0,573.9333333333333
578,601.0,576.2333333333333
579,593.0,578.4
580,581.0,580.6666666666666
581,577.0,582.7666666666667
582,583.0,584.4666666666667
583,572.0,585.0333333333333
584,591.0,586.4
585,594.0,588.3333333333334
586,593.0,590.1333333333333
587,592.0,590.8333333333334
588,599.0,591.0
589,590.0,590.7666666666667
590,578.0,590.6666666666666
591,576.0,590.7
592,584.0,590.7
593,583.0,590.4
594,583.0,590.5333333333333
595,574.0,590.3
596,578.0,590.0333333333333
597,592.0,589.6333333333333
598,593.0,588.7333333333333
599,579.0,587.4333333333334
600,567.0,586.5333333333333
601,577.0,586.5333333333333
602,598.0,586.8333333333334
603,594.0,586.4666666666667
604,587.0,586.0666666666666
605,587.0,585.9333333333334
606,595.0,586.2
607,602.0,586.4333333333334
608,600.0,586.4
609,586.0,586.1666666666666
610,580.0,586.1333333333333
611,584.0,586.3666666666667
612,592.0,586.6666666666666
613,595.0,587.4333333333334
614,582.0,587.1333333333333
615,582.0,586.7333333333333
616,595.0,586.8
617,602.0,587.1333333333333
618,602.0,587.2333333333333
619,592.0,587.3
620,583.0,587.4666666666667
621,591.0,587.9666666666667
622,598.0,588.4333333333334
623,600.0,589.0
624,589.0,589.2
625,583.0,589.5
626,594.0,590.0333333333333
627,607.0,590.5333333333333
628,606.0,590.9666666666667
629,596.0,591.5333333333333
630,589.0,592.2666666666667
631,595.0,592.8666666666667
632,605.0,593.1
633,603.0,593.4
634,587.0,593.4
635,577.0,593.0666666666666
636,585.0,592.7333333333333
637,600.0,592.6666666666666
638,599.0,592.6333333333333
639,588.0,592.7
640,575.0,592.5333333333333
641,584.0,592.5333333333333
642,598.0,592.7333333333333
643,603.0,593.0
644,591.0,593.3
645,574.0,593.0333333333333
646,585.0,592.7
647,599.0,592.6
648,600.0,592.5333333333333
649,586.0,592.3333333333334
650,575.0,592.0666666666666
651,587.0,591.9333333333334
652,596.0,591.8666666666667
653,594.0,591.6666666666666
654,576.0,591.2333333333333
655,567.0,590.7
656,576.0,590.1
657,593.0,589.6333333333333
658,590.0,589.1
659,573.0,588.3333333333334
660,555.0,587.2
661,564.0,586.1666666666666
662,584.0,585.4666666666667
663,575.0,584.5333333333333
664,554.0,583.4333333333334
665,551.0,582.5666666666666
666,563.0,581.8333333333334
667,582.0,581.2333333333333
668,583.0,580.7
669,567.0,580.0
670,550.0,579.1666666666666
671,551.0,578.0666666666666
672,563.0,576.9
673,564.0,575.6
674,553.0,574.3333333333334
675,541.0,573.2333333333333
676,548.0,572.0
677,567.0,570.9333333333333
678,567.0,569.8333333333334
679,549.0,568.6
680,528.0,567.0333333333333
681,536.0,565.3333333333334
682,555.0,563.9666666666667
683,556.0,562.7
684,541.0,561.5333333333333
685,523.0,560.0666666666667
686,531.0,558.5666666666667
687,552.0,557.2
688,550.0,555.8666666666667
689,535.0,554.6
690,521.0,553.4666666666667
691,528.0,552.2666666666667
692,543.0,550.9
693,549.0,550.0333333333333
694,531.0,549.2666666666667
695,514.0,548.0333333333333
696,520.0,546.6
697,535.0,545.0333333333333
698,535.0,543.4333333333333
699,525.0,542.0333333333333
700,513.0,540.8
701,520.0,539.7666666666667
702,536.0,538.8666666666667
703,540.0,538.0666666666667
704,527.0,537.2
705,506.0,536.4333333333333
706,504.0,535.5
707,526.0,534.1333333333333
708,535.0,533.0666666666667
709,519.0,532.0666666666667
710,505.0,531.7666666666667
711,512.0,530.9666666666667
712,533.0,530.2333333333333
713,535.0,529.5333333333333
714,522.0,528.9
715,508.0,528.6666666666666
716,508.0,528.1666666666666
717,528.0,527.3666666666667
718,534.0,526.8333333333334
719,521.0,526.3666666666667
720,504.0,526.3333333333334
721,510.0,525.8666666666667
722,525.0,525.2666666666667
723,524.0,524.4333333333333
724,507.0,523.9666666666667
725,506.0,524.1
726,517.0,524.0
727,529.0,523.8
728,528.0,523.5666666666667
729,514.0,523.2
730,501.0,523.5333333333333
731,507.0,523.4333333333333
732,515.0,522.7333333333333
733,517.0,521.9666666666667
734,501.0,521.8333333333334
735,502.0,521.9666666666667
736,511.0,521.7333333333333
737,526.0,521.7333333333333
738,525.0,521.4
739,512.0,521.1666666666666
740,496.0,521.4666666666667
741,504.0,521.7333333333333
742,521.0,521.3333333333334
743,516.0,520.7
744,504.0,520.6333333333333
745,505.0,520.7333333333333
746,510.0,520.6666666666666
747,524.0,520.5333333333333
748,525.0,520.2333333333333
749,513.0,519.9666666666667
750,499.0,520.1333333333333
751,501.0,520.4333333333333
752,519.0,520.2333333333333
753,519.0,520.0666666666667
754,504.0,520.1666666666666
755,491.0,520.6666666666666
756,500.0,520.9
757,519.0,520.5666666666667
758,521.0,520.3333333333334
759,506.0,520.4666666666667
760,491.0,520.8
761,496.0,521.1666666666666
762,515.0,521.1666666666666
763,516.0,521.1333333333333
764,499.0,521.2
765,487.0,521.7
766,496.0,522.2
767,517.0,521.9
768,521.0,521.7666666666667
769,512.0,521.7666666666667
770,500.0,521.6333333333333
771,499.0,521.8
772,511.0,521.5333333333333
773,512.0,521.4
774,500.0,521.5333333333333
775,483.0,522.2666666666667
776,489.0,522.9666666666667
777,509.0,522.6666666666666
778,514.0,522.3
779,501.0,522.6333333333333
780,488.0,523.0
781,489.0,523.4
782,508.0,523.3
783,512.0,523.0666666666667
784,501.0,523.1666666666666
785,487.0,523.3
786,481.0,523.9333333333333
787,492.0,524.3666666666667
788,514.0,524.1333333333333
789,504.0,524.2
790,489.0,524.2666666666667
791,495.0,524.3
792,512.0,524.2
793,513.0,524.1
794,501.0,524.0333333333333
795,488.0,524.0
796,494.0,524.0666666666667
797,509.0,524.0
798,502.0,524.0333333333333
799,489.0,524.8
800,482.0,525.4
801,488.0,525.7666666666667
802,507.0,525.9
803,512.0,525.9
804,499.0,525.9333333333333
805,484.0,525.9
806,488.0,525.9333333333333
807,497.0,526.3333333333334
808,501.0,526.6333333333333
809,495.0,526.8333333333334
810,485.0,526.9333333333333
811,494.0,526.7666666666667
812,509.0,526.7333333333333
813,508.0,526.8666666666667
814,493.0,527.1333333333333
815,482.0,527.3
816,488.0,527.0666666666667
817,500.0,526.8
818,502.0,527.0666666666667
819,496.0,527.3333333333334
820,487.0,527.4
821,488.0,527.6333333333333
822,503.0,527.9333333333333
823,512.0,527.9
824,496.0,528.0666666666667
825,477.0,528.4333333333333
826,482.0,528.8333333333334
827,507.0,528.9
828,512.0,528.5666666666667
829,498.0,528.2666666666667
830,480.0,528.3333333333334
831,481.0,528.5666666666667
832,497.0,528.9
833,501.0,529.2666666666667
834,488.0,529.6333333333333
835,480.0,529.7666666666667
836,486.0,529.8333333333334
837,503.0,529.6333333333333
838,505.0,529.5
839,491.0,529.6333333333333
840,478.0,529.8666666666667
841,484.0,530.2
842,500.0,530.5
843,502.0,530.7
844,493.0,530.7
845,480.0,530.7666666666667
846,479.0,531.0666666666667
847,493.0,531.3
848,501.0,531.3333333333334
849,495.0,531.3666666666667
850,486.0,531.4
851,489.0,531.3666666666667
852,497.0,531.5666666666667
853,498.0,532.0333333333333
854,487.0,532.3333333333334
855,476.0,532.3666666666667
856,482.0,532.3666666666667
857,498.0,532.6666666666666
858,500.0,533.0666666666667
859,490.0,533.3333333333334
860,478.0,533.4
861,483.0,533.3333333333334
862,499.0,533.2666666666667
863,507.0,533.0666666666667
864,491.0,532.9666666666667
865,477.0,533.0666666666667
866,483.0,533.1666666666666
867,497.0,533.3666666666667
868,501.0,533.5
869,485.0,533.7
870,468.0,534.0333333333333
871,478.0,534.2333333333333
872,498.0,534.3
873,505.0,534.2
874,492.0,534.2333333333333
875,479.0,534.2666666666667
876,484.0,534.1
877,498.0,533.9333333333333
878,499.0,534.0
879,491.0,534.1333333333333
880,477.0,534.4333333333333
881,481.0,534.7
882,498.0,534.6666666666666
883,501.0,534.5666666666667
884,491.0,534.4333333333333
885,478.0,534.3666666666667
886,480.0,534.4333333333333
887,495.0,534.5333333333333
888,498.0,534.6
889,485.0,534.7666666666667
890,476.0,534.8333333333334
891,481.0,534.9
892,494.0,535.0666666666667
893,498.0,535.3666666666667
894,486.0,535.5333333333333
895,472.0,535.7
896,477.0,535.9
897,496.0,535.9333333333333
898,501.0,535.9333333333333
899,490.0,535.7666666666667
900,477.0,535.4666666666667
901,485.0,535.2333333333333
902,502.0,535.1
903,503.0,535.1666666666666
904,488.0,535.3
905,475.0,535.4333333333333
906,478.0,535.6333333333333
907,496.0,535.7
908,495.0,535.8333333333334
909,487.0,535.9666666666667
910,479.0,535.9
911,485.0,535.7666666666667
912,501.0,535.6666666666666
913,502.0,535.6333333333333
914,490.0,535.6666666666666
915,482.0,535.5333333333333
916,487.0,535.3
917,497.0,535.2333333333333
918,496.0,535.3
919,486.0,535.2666666666667
920,478.0,535.2
921,486.0,535.0333333333333
922,501.0,534.8
923,500.0,534.7333333333333
924,486.0,534.7333333333333
925,474.0,534.6666666666666
926,484.0,534.4333333333333
927,500.0,534.3
928,501.0,534.3
929,488.0,534.3666666666667
930,475.0,534.4333333333333
931,484.0,534.4666666666667
932,495.0,534.7
933,494.0,535.0
934,481.0,535.2333333333333
935,471.0,535.3666666666667
936,488.0,535.0333333333333
937,502.0,534.8333333333334
938,501.0,534.6333333333333
939,489.0,534.5666666666667
940,479.0,534.5666666666667
941,484.0,534.6
942,499.0,534.6666666666666
943,496.0,534.8666666666667
944,491.0,534.8333333333334
945,488.0,534.6333333333333
946,490.0,534.5333333333333
947,501.0,534.4
948,502.0,534.2
949,492.0,534.0
950,484.0,533.8
951,488.0,533.7333333333333
952,499.0,533.8
953,500.0,533.8
954,490.0,533.6666666666666
955,481.0,533.4333333333333
956,486.0,533.3666666666667
957,503.0,533.2666666666667
958,502.0,533.2333333333333
959,489.0,533.2
960,482.0,532.9666666666667
961,488.0,532.8333333333334
962,498.0,532.7333333333333
963,501.0,532.5
964,490.0,532.2
965,480.0,531.9
966,484.0,532.0333333333333
967,499.0,532.1333333333333
968,507.0,531.9333333333333
969,495.0,531.7333333333333
970,482.0,531.6333333333333
971,489.0,531.4666666666667
972,504.0,531.3
973,506.0,530.9666666666667
974,495.0,530.8333333333334
975,486.0,530.9
976,491.0,530.8666666666667
977,505.0,530.7333333333333
978,508.0,530.5333333333333
979,497.0,530.3666666666667
980,485.0,530.3333333333334
981,492.0,530.2
982,504.0,530.0333333333333
983,504.0,529.9
984,492.0,529.8333333333334
985,483.0,529.7666666666667
986,488.0,529.7
987,504.0,529.6666666666666
988,507.0,529.5
989,497.0,529.2333333333333
990,486.0,529.1
991,488.0,529.1
992,497.0,529.1333333333333
993,499.0,529.2
994,492.0,529.1333333333333
995,485.0,528.9666666666667
996,487.0,528.8666666666667
997,500.0,528.8333333333334
998,502.0,529.0
999,491.0,529.1333333333333
1000,480.0,529.2
1001,488.0,529.2333333333333
1002,504.0,529.2333333333333
1003,505.0,529.2666666666667
1004,493.0,529.3333333333334
1005,484.0,529.4
1006,489.0,529.4666666666667
1007,504.0,529.5
1008,504.0,529.6333333333333
1009,494.0,529.7333333333333
1010,483.0,529.8
1011,488.0,529.9333333333333
1012,498.0,530.1333333333333
1013,502.0,530.2
1014,494.0,530.1333333333333
1015,484.0,530.1
1016,488.0,530.1
1017,502.0,530.1666666666666
1018,502.0,530.3333333333334
1019,491.0,530.5333333333333
1020,481.0,530.7
1021,489.0,530.6666666666666
1022,500.0,530.5666666666667
1023,504.0,530.4
1024,492.0,530.4
1025,482.0,530.5
1026,490.0,530.4
1027,506.0,530.2
1028,506.0,530.0666666666667
1029,495.0,529.9333333333333
1030,485.0,529.7666666666667
1031,491.0,529.6666666666666
1032,503.0,529.7
1033,505.0,529.7
1034,495.0,529.6333333333333
1035,484.0,529.6333333333333
1036,488.0,529.6666666666666
1037,502.0,529.7333333333333
1038,507.0,529.6333333333333
1039,499.0,529.4666666666667
1040,488.0,529.3
1041,493.0,529.1333333333333
1042,504.0,528.9333333333333
1043,505.0,528.8333333333334
1044,495.0,528.8
1045,486.0,528.7333333333333
1046,491.0,528.6333333333333
1047,502.0,528.6333333333333
1048,503.0,528.6
1049,491.0,528.6
1050,487.0,528.4
1051,496.0,528.1666666666666
1052,505.0,528.0
1053,503.0,528.0333333333333
1054,493.0,528.0
1055,485.0,527.9
1056,489.0,527.9333333333333
1057,503.0,528.0333333333333
1058,505.0,528.0666666666667
1059,494.0,528.1
1060,487.0,528.0333333333333
1061,496.0,527.8666666666667
1062,509.0,527.6666666666666
1063,509.0,527.5333333333333
1064,498.0,527.4333333333333
1065,488.0,527.3
1066,491.0,527.2
1067,504.0,527.1333333333333
1068,505.0,527.2
1069,492.0,527.4333333333333
1070,483.0,527.6
1071,492.0,527.6333333333333
1072,511.0,527.4
1073,511.0,527.2
1074,501.0,527.0
1075,493.0,526.7666666666667
1076,499.0,526.5
1077,508.0,526.3
1078,508.0,526.1333333333333
1079,500.0,525.8333333333334
1080,488.0,525.8
1081,483.0,526.2333333333333
1082,497.0,526.5
1083,509.0,526.3
1084,502.0,526.0
1085,496.0,525.6333333333333
1086,499.0,525.3
1087,507.0,525.1666666666666
1088,507.0,525.1
1089,499.0,524.9333333333333
1090,493.0,524.7333333333333
1091,501.0,524.5666666666667
1092,508.0,524.6
1093,505.0,524.7333333333333
1094,494.0,524.8666666666667
1095,489.0,524.8333333333334
1096,495.0,524.7
1097,508.0,524.5666666666667
1098,509.0,524.4333333333333
1099,497.0,524.2666666666667
1100,489.0,524.0666666666667
1101,495.0,523.9666666666667
1102,509.0,524.0333333333333
1103,508.0,524.1333333333333
1104,493.0,524.4
1105,482.0,524.7666666666667
1106,494.0,524.9333333333333
1107,512.0,524.8
1108,511.0,524.7
1109,503.0,524.6
1110,495.0,524.3666666666667
1111,501.0,523.7666666666667
1112,510.0,523.3333333333334
1113,511.0,523.2666666666667
1114,499.0,523.3666666666667
1115,494.0,523.4333333333333
1116,501.0,523.3666666666667
1117,510.0,523.2666666666667
1118,508.0,523.2333333333333
1119,498.0,523.2666666666667
1120,494.0,523.2333333333333
1121,498.0,523.3333333333334
1122,510.0,523.2666666666667
1123,508.0,523.1666666666666
1124,501.0,522.9333333333333
1125,493.0,522.8
1126,499.0,522.6666666666666
1127,508.0,522.6666666666666
1128,510.0,522.6333333333333
1129,501.0,522.5
1130,493.0,522.3666666666667
1131,499.0,522.2333333333333
1132,509.0,522.2333333333333
1133,508.0,522.2333333333333
1134,499.0,522.0333333333333
1135,491.0,521.7333333333333
1136,498.0,521.6
1137,510.0,521.6666666666666
1138,510.0,521.7
1139,502.0,521.7333333333333
1140,496.0,521.7
1141,501.0,521.7
1142,508.0,521.7666666666667
1143,507.0,521.9
1144,500.0,521.8666666666667
1145,494.0,521.8666666666667
1146,500.0,521.9
1147,511.0,521.8666666666667
1148,507.0,521.9
1149,503.0,521.7333333333333
1150,493.0,521.7666666666667
1151,496.0,521.8333333333334
1152,507.0,521.9333333333333
1153,510.0,521.8666666666667
1154,503.0,521.8
1155,495.0,521.7333333333333
1156,498.0,521.7666666666667
1157,505.0,521.8666666666667
1158,506.0,522.0
1159,500.0,522.0333333333333
1160,497.0,521.9
1161,500.0,521.8666666666667
1162,509.0,521.8666666666667
1163,510.0,521.8
1164,498.0,521.8333333333334
1165,496.0,521.6666666666666
1166,502.0,521.5333333333333
1167,512.0,521.4666666666667
1168,510.0,521.4666666666667
1169,502.0,521.4666666666667
1170,493.0,521.5666666666667
1171,499.0,521.6333333333333
1172,511.0,521.5333333333333
1173,511.0,521.4
1174,503.0,521.3
1175,495.0,521.2666666666667
1176,499.0,521.3
1177,512.0,521.2666666666667
1178,511.0,521.1333333333333
1179,504.0,521.1
1180,498.0,520.9333333333333
1181,503.0,520.7
1182,513.0,520.5666666666667
1183,511.0,520.5333333333333
1184,502.0,520.5666666666667
1185,494.0,520.6
1186,499.0,520.5666666666667
1187,514.0,520.4
1188,510.0,520.2666666666667
1189,501.0,520.2333333333333
1190,493.0,520.3666666666667
1191,498.0,520.4333333333333
1192,509.0,520.4333333333333
1193,511.0,520.4
1194,504.0,520.2
1195,497.0,520.1666666666666
1196,502.0,520.1666666666666
1197,511.0,520.2
1198,510.0,520.2
1199,501.0,520.2333333333333
1200,495.0,520.1666666666666
1201,500.0,520.1333333333333
1202,511.0,520.1333333333333
1203,510.0,520.1666666666666
1204,505.0,520.1
1205,499.0,519.9666666666667
1206,504.0,519.8
1207,511.0,519.8333333333334
1208,509.0,519.9
1209,506.0,519.8333333333334
1210,500.0,519.7666666666667
1211,506.0,519.6666666666666
1212,519.0,519.8666666666667
1213,514.0,519.9
1214,501.0,519.9333333333333
1215,496.0,519.8666666666667
1216,503.0,519.7333333333333
1217,513.0,519.7
1218,514.0,519.7
1219,506.0,519.5333333333333
1220,500.0,519.3
1221,504.0,519.1
1222,513.0,519.0333333333333
1223,513.0,519.0333333333333
1224,505.0,519.0
1225,499.0,518.9333333333333
1226,502.0,518.9333333333333
1227,512.0,518.9
1228,512.0,518.8333333333334
1229,501.0,518.8333333333334
1230,496.0,518.8
1231,503.0,518.7
1232,516.0,518.8
1233,514.0,518.8
1234,504.0,518.8333333333334
1235,500.0,518.8
1236,501.0,518.9
1237,506.0,519.0666666666667
1238,504.0,519.2333333333333
1239,505.0,519.2666666666667
1240,506.0,519.0666666666667
1241,509.0,518.9666666666667
1242,516.0,518.8666666666667
1243,514.0,518.8666666666667
1244,505.0,518.7333333333333
1245,500.0,518.6
1246,503.0,518.6
1247,512.0,518.5666666666667
1248,512.0,518.5
1249,505.0,518.5333333333333
1250,502.0,518.4666666666667
1251,504.0,518.4666666666667
1252,512.0,518.4333333333333
1253,512.0,518.4
1254,505.0,518.4
1255,501.0,518.3333333333334
1256,501.0,518.3666666666667
1257,510.0,518.4333333333333
1258,509.0,518.5333333333333
1259,503.0,518.4666666666667
1260,499.0,518.3666666666667
1261,506.0,518.2666666666667
1262,516.0,518.2666666666667
1263,513.0,518.2333333333333
1264,501.0,518.3333333333334
1265,493.0,518.5666666666667
1266,502.0,518.5333333333333
1267,515.0,518.4333333333333
1268,516.0,518.3
1269,509.0,518.1666666666666
1270,504.0,518.2333333333333
1271,500.0,518.5333333333333
1272,515.0,518.5
1273,516.0,518.5666666666667
1274,506.0,518.5333333333333
1275,505.0,518.3666666666667
1276,507.0,518.2333333333333
1277,515.0,518.3333333333334
1278,516.0,518.4666666666667
1279,508.0,518.3666666666667
1280,499.0,518.4666666666667
1281,503.0,518.5
1282,513.0,518.5333333333333
1283,516.0,518.6666666666666
1284,509.0,518.5333333333333
1285,502.0,518.5
1286,507.0,518.3
1287,516.0,518.3666666666667
1288,514.0,518.3333333333334
1289,506.0,518.2333333333333
1290,501.0,518.1666666666666
1291,506.0,518.1666666666666
1292,516.0,518.1666666666666
1293,519.0,518.3666666666667
1294,509.0,518.1
1295,501.0,517.8333333333334
1296,504.0,517.7666666666667
1297,515.0,517.7666666666667
1298,515.0,517.7333333333333
1299,507.0,517.8
1300,501.0,517.9
1301,503.0,517.8
1302,510.0,517.7666666666667
1303,515.0,517.7333333333333
1304,505.0,517.7666666666667
1305,502.0,517.8666666666667
1306,508.0,517.8333333333334
1307,511.0,517.7666666666667
1308,514.0,517.7
1309,509.0,517.6666666666666
1310,501.0,517.6
1311,505.0,517.5333333333333
1312,519.0,517.7333333333333
1313,519.0,517.8333333333334
1314,508.0,517.8666666666667
1315,501.0,517.9
1316,503.0,518.0333333333333
1317,514.0,517.9666666666667
1318,517.0,518.0666666666667
1319,508.0,518.0
1320,502.0,517.9666666666667
1321,505.0,518.0
1322,516.0,518.0
1323,516.0,517.9
1324,507.0,517.9666666666667
1325,500.0,518.0
1326,506.0,517.9333333333333
1327,516.0,517.9666666666667
1328,518.0,518.0666666666667
1329,508.0,518.0333333333333
1330,501.0,518.0333333333333
1331,509.0,517.8333333333334
1332,515.0,517.8666666666667
1333,516.0,517.9
1334,503.0,517.9666666666667
1335,496.0,518.1666666666666
1336,502.0,518.3666666666667
1337,511.0,518.3666666666667
1338,513.0,518.3333333333334
1339,504.0,518.5
1340,501.0,518.5
1341,506.0,518.4666666666667
1342,512.0,518.2333333333333
1343,509.0,518.1
1344,505.0,518.2
1345,507.0,518.0
1346,514.0,517.7666666666667
1347,520.0,517.9666666666667
1348,514.0,517.8666666666667
1349,504.0,518.0
1350,498.0,518.1333333333333
1351,506.0,518.1
1352,516.0,518.1
1353,514.0,518.0333333333333
1354,506.0,518.0666666666667
1355,498.0,518.1333333333333
1356,507.0,518.1
1357,518.0,518.1666666666666
1358,516.0,518.1
1359,507.0,518.1333333333333
1360,501.0,518.1333333333333
1361,509.0,518.1333333333333
1362,515.0,518.1333333333333
1363,514.0,518.0666666666667
1364,510.0,517.8333333333334
1365,510.0,517.3666666666667
1366,508.0,517.1666666666666
1367,510.0,517.2
1368,511.0,517.2
1369,506.0,517.1333333333333
1370,501.0,517.1333333333333
1371,507.0,517.1
1372,516.0,517.2333333333333
1373,514.0,517.2
1374,506.0,517.1666666666666
1375,504.0,517.2666666666667
1376,512.0,517.2
1377,516.0,517.0666666666667
1378,513.0,517.0333333333333
1379,507.0,516.9333333333333
1380,503.0,516.7666666666667
1381,507.0,516.7333333333333
1382,515.0,516.7
1383,514.0,516.7
1384,510.0,516.5666666666667
1385,506.0,516.3
1386,514.0,516.2
1387,520.0,516.2666666666667
1388,516.0,516.2666666666667
1389,509.0,516.2
1390,502.0,516.1666666666666
1391,509.0,516.1666666666666
1392,516.0,516.2
1393,514.0,516.2
1394,506.0,516.3333333333334
1395,508.0,516.4
1396,510.0,516.3333333333334
1397,516.0,516.4
1398,513.0,516.4
1399,508.0,516.3333333333334
1400,507.0,516.1333333333333
1401,514.0,516.0333333333333
1402,520.0,516.1666666666666
1403,517.0,516.2666666666667
1404,508.0,516.2
1405,503.0,516.2333333333333
1406,511.0,516.2666666666667
1407,518.0,516.3333333333334
1408,516.0,516.4333333333333
1409,509.0,516.3666666666667
1410,509.0,516.1666666666666
1411,510.0,516.0666666666667
1412,514.0,516.0333333333333
1413,513.0,516.0
1414,507.0,516.1
1415,500.0,516.3
1416,511.0,516.2666666666667
1417,518.0,516.2
1418,515.0,516.1666666666666
1419,505.0,516.3
1420,502.0,516.3
1421,509.0,516.3
1422,518.0,516.3666666666667
1423,518.0,516.5
1424,507.0,516.4666666666667
1425,507.0,516.5
1426,511.0,516.4666666666667
1427,517.0,516.5
1428,515.0,516.5666666666667
1429,507.0,516.6
1430,501.0,516.8
1431,511.0,516.7666666666667
1432,519.0,516.7333333333333
1433,518.0,516.7666666666667
1434,509.0,516.7333333333333
1435,506.0,516.6333333333333
1436,514.0,516.6666666666666
1437,522.0,516.8
1438,517.0,516.8333333333334
1439,505.0,516.9666666666667
1440,508.0,517.0
1441,515.0,517.0333333333333
1442,520.0,517.2333333333333
1443,516.0,517.3333333333334
1444,510.0,517.2333333333333
1445,507.0,517.0
1446,514.0,517.0333333333333
1447,519.0,517.0666666666667
1448,515.0,517.0666666666667
1449,510.0,516.9
1450,507.0,516.7333333333333
1451,511.0,516.6666666666666
1452,515.0,516.5666666666667
1453,513.0,516.4
1454,503.0,516.5333333333333
1455,502.0,516.7
1456,511.0,516.7
1457,515.0,516.6333333333333
1458,511.0,516.5666666666667
1459,502.0,516.7333333333333
1460,503.0,516.6666666666666
1461,512.0,516.6333333333333
1462,516.0,516.5333333333333
1463,513.0,516.3666666666667
1464,505.0,516.5
1465,504.0,516.5666666666667
1466,512.0,516.5
1467,517.0,516.3333333333334
1468,511.0,516.2
1469,504.0,516.2333333333333
1470,503.0,516.4
1471,513.0,516.3333333333334
1472,516.0,516.2
1473,510.0,516.1333333333333
1474,504.0,516.3333333333334
1475,507.0,516.3333333333334
1476,510.0,516.3333333333334
1477,518.0,516.3
1478,516.0,516.3333333333334
1479,510.0,516.3333333333334
1480,509.0,516.2666666666667
1481,509.0,516.3333333333334
1482,510.0,516.3
1483,509.0,516.3666666666667
1484,505.0,516.3
1485,508.0,516.1
1486,512.0,516.0666666666667
1487,513.0,516.0
1488,509.0,516.0666666666667
1489,504.0,516.0
1490,506.0,515.9
1491,512.0,515.9
1492,518.0,515.9666666666667
1493,511.0,515.9666666666667
1494,507.0,515.9
1495,505.0,515.8666666666667
1496,509.0,515.9666666666667
1497,513.0,515.8333333333334
1498,514.0,515.8666666666667
1499,509.0,515.7
1500,512.0,515.4
1501,519.0,515.6
1502,517.0,515.6333333333333
1503,511.0,515.6
1504,505.0,515.5666666666667
1505,509.0,515.5
1506,517.0,515.6
1507,521.0,515.7
1508,515.0,515.6666666666666
1509,507.0,515.7666666666667
1510,506.0,515.8666666666667
1511,514.0,515.8333333333334
1512,518.0,515.9666666666667
1513,513.0,515.9
1514,507.0,515.8333333333334
1515,511.0,515.7333333333333
1516,524.0,516.1333333333333
1517,527.0,516.6
1518,518.0,516.7
1519,511.0,516.4666666666667
1520,512.0,516.2666666666667
1521,523.0,516.6333333333333
1522,524.0,516.8333333333334
1523,516.0,516.9333333333333
1524,507.0,516.9333333333333
1525,510.0,516.7666666666667
1526,522.0,517.0
1527,523.0,517.3333333333334
1528,513.0,517.3
1529,507.0,517.3666666666667
1530,512.0,517.3666666666667
1531,523.0,517.5
1532,521.0,517.6333333333333
1533,512.0,517.6
1534,507.0,517.5333333333333
1535,512.0,517.4333333333333
1536,524.0,517.6666666666666
1537,526.0,517.8333333333334
1538,517.0,517.9
1539,508.0,517.8666666666667
1540,515.0,517.7666666666667
1541,526.0,518.1666666666666
1542,521.0,518.2666666666667
1543,514.0,518.3
1544,509.0,518.2333333333333
1545,516.0,518.3333333333334
1546,526.0,518.4
1547,524.0,518.3
1548,511.0,518.1333333333333
1549,507.0,518.2666666666667
1550,514.0,518.3333333333334
1551,523.0,518.3333333333334
1552,520.0,518.2
1553,508.0,518.2
1554,505.0,518.2666666666667
1555,515.0,518.3
1556,522.0,518.3
1557,516.0,518.0666666666667
1558,502.0,518.3666666666667
1559,496.0,518.7333333333333
1560,508.0,518.8666666666667
1561,518.0,518.7
1562,512.0,518.4
1563,501.0,518.7666666666667
1564,498.0,519.0666666666667
1565,508.0,519.2
1566,518.0,519.0
1567,514.0,518.6
1568,502.0,518.7666666666667
1569,495.0,519.2
1570,505.0,519.3333333333334
1571,518.0,519.0666666666667
1572,511.0,518.8
1573,500.0,519.1333333333333
1574,496.0,519.5666666666667
1575,505.0,519.6666666666666
1576,518.0,519.4
1577,513.0,519.0333333333333
1578,498.0,519.4666666666667
1579,492.0,519.9666666666667
1580,507.0,520.0666666666667
1581,515.0,519.8
1582,510.0,519.6
1583,497.0,519.9666666666667
1584,492.0,520.4
1585,503.0,520.6
1586,515.0,520.3666666666667
1587,509.0,520.3333333333334
1588,495.0,520.5666666666667
1589,488.0,520.8333333333334
1590,498.0,521.1666666666666
1591,510.0,521.0333333333333
1592,509.0,521.1333333333333
1593,497.0,521.2666666666667
1594,498.0,521.2666666666667
1595,510.0,521.2
1596,522.0,521.3333333333334
1597,516.0,521.4
1598,499.0,521.5
1599,495.0,521.5
1600,507.0,521.4333333333333
1601,518.0,521.4333333333333
1602,509.0,521.5
1603,497.0,521.6
1604,496.0,521.6
1605,507.0,521.5333333333333
1606,516.0,521.4666666666667
1607,511.0,521.4666666666667
1608,498.0,521.4666666666667
1609,495.0,521.3666666666667
1610,505.0,521.4333333333333
1611,516.0,521.4666666666667
1612,510.0,521.4666666666667
1613,497.0,521.4666666666667
1614,494.0,521.4
1615,507.0,521.2666666666667
1616,518.0,521.3666666666667
1617,511.0,521.3
1618,501.0,521.1
1619,496.0,520.8333333333334
1620,507.0,520.5333333333333
1621,520.0,520.7333333333333
1622,513.0,520.6666666666666
1623,500.0,520.5666666666667
1624,498.0,520.5666666666667
1625,512.0,520.5
1626,525.0,520.6
1627,517.0,520.6333333333333
1628,500.0,520.6
1629,499.0,520.4666666666667
1630,508.0,520.4333333333333
1631,517.0,520.4
1632,509.0,520.4
1633,496.0,520.4333333333333
1634,495.0,520.4666666666667
1635,505.0,520.5333333333333
1636,521.0,520.7
1637,513.0,520.7
1638,498.0,520.7
1639,492.0,520.8
1640,502.0,520.9
1641,516.0,520.9
1642,511.0,520.8666666666667
1643,500.0,520.7666666666667
1644,497.0,520.6666666666666
1645,511.0,520.5333333333333
1646,519.0,520.5666666666667
1647,512.0,520.5333333333333
1648,497.0,520.6666666666666
1649,494.0,520.7333333333333
1650,509.0,520.6666666666666
1651,521.0,520.7
1652,516.0,520.8
1653,502.0,520.7333333333333
1654,499.0,520.7
1655,509.0,520.8
1656,520.0,520.6333333333333
1657,513.0,520.5
1658,501.0,520.4666666666667
1659,501.0,520.4
1660,510.0,520.3333333333334
1661,521.0,520.4666666666667
1662,513.0,520.4
1663,501.0,520.2333333333333
1664,499.0,520.1
1665,510.0,519.9333333333333
1666,524.0,520.0333333333333
1667,520.0,520.2666666666667
1668,500.0,520.2
1669,497.0,520.0333333333333
1670,514.0,519.7666666666667
1671,529.0,520.2
1672,517.0,520.3333333333334
1673,500.0,520.3333333333334
1674,495.0,520.4
1675,509.0,520.4666666666667
1676,522.0,520.5666666666667
1677,516.0,520.7
1678,504.0,520.4666666666667
1679,497.0,520.3666666666667
1680,505.0,520.5
1681,520.0,520.4666666666667
1682,519.0,520.5666666666667
1683,507.0,520.4
1684,502.0,520.3
1685,513.0,520.2333333333333
1686,520.0,520.2333333333333
1687,513.0,520.2333333333333
1688,500.0,520.2666666666667
1689,495.0,520.4666666666667
1690,506.0,520.6
1691,524.0,520.7
1692,521.0,520.9666666666667
1693,508.0,520.7333333333333
1694,499.0,520.7333333333333
1695,512.0,520.6666666666666
1696,523.0,520.6333333333333
1697,514.0,520.4333333333333
1698,499.0,520.4666666666667
1699,498.0,520.4333333333333
1700,511.0,520.4
1701,524.0,520.2333333333333
1702,521.0,520.3666666666667
1703,507.0,520.1333333333333
1704,497.0,520.0666666666667
1705,509.0,520.0666666666667
1706,522.0,520.0666666666667
1707,515.0,520.0333333333333
1708,501.0,520.1333333333333
1709,494.0,520.2333333333333
1710,511.0,520.0333333333333
1711,528.0,520.3
1712,523.0,520.4333333333333
1713,507.0,520.4333333333333
1714,498.0,520.5666666666667
1715,507.0,520.7
1716,520.0,520.7
1717,517.0,520.8333333333334
1718,502.0,520.7666666666667
1719,500.0,520.6
1720,511.0,520.4333333333333
1721,525.0,520.4666666666667
1722,521.0,520.4666666666667
1723,506.0,520.5333333333333
1724,498.0,520.5666666666667
1725,513.0,520.6
1726,525.0,520.6666666666666
1727,519.0,520.8333333333334
1728,501.0,520.7666666666667
1729,495.0,520.8666666666667
1730,508.0,520.9666666666667
1731,522.0,520.9
1732,513.0,520.6333333333333
1733,498.0,520.9333333333333
1734,500.0,520.8333333333334
1735,515.0,520.8333333333334
1736,528.0,521.0333333333333
1737,520.0,521.2
1738,503.0,521.1333333333333
1739,501.0,520.9
1740,511.0,520.9
1741,522.0,520.7
1742,516.0,520.4666666666667
1743,501.0,520.6666666666666
1744,501.0,520.5666666666667
1745,516.0,520.5333333333333
1746,526.0,520.7333333333333
1747,520.0,520.8333333333334
1748,509.0,520.6
1749,505.0,520.4333333333333
