Action_Label,open_fist
Fs_Hz,250
Total_Samples,1250

Sample_Index,Raw_EMG,Envelope
0,517.0,540.0666666666667
1,553.0,539.7
2,533.0,539.9333333333333
3,478.0,539.8333333333334
4,481.0,539.7666666666667
5,525.0,539.6666666666666
6,561.0,539.9
7,523.0,540.0333333333333
8,475.0,540.1333333333333
9,482.0,540.3666666666667
10,531.0,540.2
11,558.0,540.2
12,513.0,539.8
13,472.0,540.1666666666666
14,481.0,540.1666666666666
15,534.0,540.2
16,566.0,540.4666666666667
17,522.0,540.6666666666666
18,473.0,540.7
19,474.0,540.5333333333333
20,520.0,540.3
21,559.0,539.9333333333333
22,518.0,539.7
23,465.0,540.0666666666667
24,466.0,540.3666666666667
25,526.0,540.5
26,562.0,540.7666666666667
27,516.0,540.7
28,464.0,541.2333333333333
29,470.0,541.4666666666667
30,523.0,541.6666666666666
31,559.0,541.8666666666667
32,514.0,541.2333333333333
33,466.0,541.6333333333333
34,465.0,542.1666666666666
35,513.0,541.7666666666667
36,553.0,541.5
37,517.0,541.3
38,473.0,541.3666666666667
39,477.0,541.5333333333333
40,526.0,541.3666666666667
41,552.0,541.1666666666666
42,512.0,541.1333333333333
43,458.0,541.6
44,471.0,541.9333333333333
45,526.0,541.6666666666666
46,551.0,541.1666666666666
47,512.0,540.8333333333334
48,463.0,541.1666666666666
49,457.0,541.7333333333333
50,521.0,541.7666666666667
51,550.0,541.4666666666667
52,511.0,541.3
53,473.0,541.0333333333333
54,463.0,541.1333333333333
55,504.0,540.9333333333333
56,546.0,540.4
57,518.0,540.4666666666667
58,470.0,540.2666666666667
59,468.0,540.3333333333334
60,512.0,539.9666666666667
61,543.0,539.4333333333333
62,504.0,539.6333333333333
63,451.0,540.1333333333333
64,453.0,540.5333333333333
65,513.0,540.5333333333333
66,544.0,540.2333333333333
67,514.0,540.1333333333333
68,457.0,540.6666666666666
69,465.0,541.0666666666667
70,514.0,540.6666666666666
71,549.0,540.5666666666667
72,500.0,540.9666666666667
73,449.0,541.2666666666667
74,453.0,541.8666666666667
75,514.0,541.4666666666667
76,545.0,541.2666666666667
77,495.0,541.8333333333334
78,462.0,541.8666666666667
79,475.0,541.2666666666667
80,526.0,541.4333333333333
81,548.0,541.3666666666667
82,495.0,541.9
83,460.0,542.3333333333334
84,473.0,542.0
85,520.0,542.0
86,552.0,542.2
87,512.0,542.0
88,459.0,542.3666666666667
89,454.0,542.8333333333334
90,516.0,542.9666666666667
91,561.0,543.5666666666667
92,516.0,543.4333333333333
93,464.0,543.0
94,467.0,542.5333333333333
95,507.0,542.6666666666666
96,544.0,542.6666666666666
97,519.0,542.8333333333334
98,476.0,542.2
99,476.0,541.8333333333334
100,525.0,542.2
101,549.0,542.2
102,520.0,542.0666666666667
103,474.0,541.2333333333333
104,472.0,540.6
105,526.0,541.0
106,559.0,541.4666666666667
107,519.0,541.1333333333333
108,472.0,540.8
109,477.0,540.7333333333333
110,524.0,540.6666666666666
111,544.0,540.5333333333333
112,515.0,540.0666666666667
113,481.0,539.3666666666667
114,487.0,538.9
115,530.0,539.2333333333333
116,554.0,539.3
117,519.0,539.5333333333333
118,462.0,539.4333333333333
119,475.0,538.7333333333333
120,539.0,539.5
121,557.0,539.3666666666667
122,515.0,539.3333333333334
123,472.0,539.0666666666667
124,482.0,538.5666666666667
125,537.0,539.2333333333333
126,570.0,540.1
127,523.0,540.2333333333333
128,476.0,540.2333333333333
129,481.0,540.0666666666667
130,532.0,540.3
131,566.0,540.8666666666667
132,521.0,540.9
133,461.0,541.3333333333334
134,473.0,541.3
135,534.0,541.5666666666667
136,567.0,541.8333333333334
137,519.0,541.8333333333334
138,468.0,541.9666666666667
139,484.0,541.7333333333333
140,530.0,541.9333333333333
141,559.0,542.4333333333333
142,527.0,542.8333333333334
143,477.0,542.9666666666667
144,476.0,543.3333333333334
145,524.0,543.1333333333333
146,572.0,543.7333333333333
147,529.0,544.0666666666667
148,480.0,543.4666666666667
149,491.0,542.9333333333333
150,535.0,542.8
151,576.0,543.4333333333333
152,522.0,543.6666666666666
153,469.0,543.7666666666667
154,480.0,543.8333333333334
155,532.0,543.6666666666666
156,565.0,543.5
157,523.0,543.5
158,476.0,543.5
159,468.0,543.9333333333333
160,514.0,543.3333333333334
161,557.0,543.0333333333333
162,524.0,543.1333333333333
163,481.0,542.4666666666667
164,491.0,541.8666666666667
165,535.0,541.9
166,558.0,541.6
167,524.0,541.7666666666667
168,480.0,541.3666666666667
169,482.0,541.4333333333333
170,532.0,541.5
171,566.0,541.7333333333333
172,519.0,541.4666666666667
173,478.0,541.4333333333333
174,482.0,541.2333333333333
175,531.0,541.4666666666667
176,569.0,541.3666666666667
177,523.0,541.1666666666666
178,473.0,541.4
179,492.0,541.3666666666667
180,552.0,541.9333333333333
181,578.0,542.0
182,534.0,542.4
183,484.0,541.9
184,491.0,541.5333333333333
185,543.0,541.9
186,572.0,542.1333333333333
187,528.0,542.3
188,476.0,542.3
189,479.0,541.9333333333333
190,531.0,542.5
191,556.0,542.4666666666667
192,511.0,542.1
193,488.0,541.8666666666667
194,501.0,541.5333333333333
195,538.0,541.6333333333333
196,552.0,541.4333333333333
197,517.0,541.2
198,496.0,540.6666666666666
199,509.0,539.7666666666667
200,555.0,540.5333333333333
201,584.0,541.1333333333333
202,541.0,541.8666666666667
203,493.0,541.3666666666667
204,493.0,541.0
205,542.0,541.3666666666667
206,572.0,541.4666666666667
207,527.0,541.6
208,477.0,541.4666666666667
209,482.0,541.8
210,542.0,541.4666666666667
211,578.0,541.4666666666667
212,534.0,541.4666666666667
213,479.0,541.6333333333333
214,489.0,541.7
215,550.0,541.9333333333333
216,591.0,542.5666666666667
217,530.0,542.6333333333333
218,476.0,542.6333333333333
219,487.0,542.3666666666667
220,533.0,542.4333333333333
221,573.0,543.0
222,531.0,543.6
223,484.0,543.7333333333333
224,485.0,544.2666666666667
225,537.0,544.2333333333333
226,566.0,544.7
227,525.0,544.9666666666667
228,487.0,545.2666666666667
229,486.0,546.0333333333333
230,541.0,545.5666666666667
231,559.0,544.7333333333333
232,518.0,543.9666666666667
233,482.0,544.3333333333334
234,487.0,544.5333333333333
235,541.0,544.5
236,569.0,544.4
237,524.0,544.3
238,479.0,544.2333333333333
239,480.0,544.3
240,527.0,543.8
241,566.0,543.4
242,521.0,542.9666666666667
243,474.0,543.1333333333333
244,485.0,543.2666666666667
245,528.0,542.5333333333333
246,566.0,541.7
247,531.0,541.7333333333333
248,477.0,541.7
249,475.0,542.1
250,523.0,541.7666666666667
251,552.0,541.0666666666667
252,512.0,540.4333333333333
253,469.0,540.9333333333333
254,468.0,541.5
255,525.0,541.1
256,579.0,541.5333333333333
257,532.0,541.7666666666667
258,474.0,542.2
259,474.0,542.6
260,520.0,541.9
261,560.0,541.9333333333333
262,525.0,542.1666666666666
263,470.0,542.5666666666667
264,475.0,542.9666666666667
265,521.0,542.3
266,556.0,541.8666666666667
267,511.0,541.5
268,466.0,541.9333333333333
269,478.0,542.0
270,526.0,541.9666666666667
271,555.0,541.6
272,511.0,541.3333333333334
273,453.0,542.0333333333333
274,462.0,542.8
275,525.0,542.7
276,556.0,542.3666666666667
277,515.0,541.8333333333334
278,469.0,542.1
279,470.0,542.2666666666667
280,528.0,542.4333333333333
281,550.0,542.3666666666667
282,514.0,542.4333333333333
283,475.0,542.2333333333333
284,472.0,542.1
285,519.0,541.9
286,555.0,541.1
287,516.0,540.5666666666667
288,464.0,540.9
289,474.0,540.9
290,510.0,540.7
291,548.0,540.3
292,508.0,540.0
293,460.0,540.3333333333334
294,471.0,540.4666666666667
295,525.0,540.6
296,552.0,540.4666666666667
297,518.0,540.6333333333333
298,462.0,540.7666666666667
299,465.0,541.2
300,518.0,540.9333333333333
301,552.0,540.8333333333334
302,516.0,540.9333333333333
303,456.0,540.8333333333334
304,462.0,540.8333333333334
305,519.0,540.6333333333333
306,553.0,540.5333333333333
307,508.0,540.5666666666667
308,463.0,540.7666666666667
309,460.0,541.1
310,510.0,540.6333333333333
311,550.0,540.6333333333333
312,514.0,540.6333333333333
313,471.0,540.7666666666667
314,470.0,540.8333333333334
315,531.0,541.2333333333333
316,565.0,541.5666666666667
317,520.0,541.7
318,465.0,541.6666666666666
319,466.0,541.9333333333333
320,521.0,542.1666666666666
321,557.0,542.4666666666667
322,514.0,542.4
323,460.0,542.4
324,463.0,542.6666666666666
325,519.0,542.4666666666667
326,557.0,542.6333333333333
327,519.0,542.6666666666666
328,464.0,542.6
329,468.0,542.5
330,526.0,542.7666666666667
331,561.0,543.0666666666667
332,520.0,543.2
333,472.0,542.6666666666666
334,469.0,542.4333333333333
335,517.0,542.3666666666667
336,558.0,542.5333333333333
337,519.0,542.6333333333333
338,475.0,542.2333333333333
339,491.0,541.2
340,518.0,541.3333333333334
341,536.0,540.8666666666667
342,502.0,541.1333333333333
343,457.0,541.6
344,459.0,541.9666666666667
345,499.0,541.7666666666667
346,542.0,541.0
347,512.0,540.7333333333333
348,453.0,541.1333333333333
349,438.0,542.0666666666667
350,479.0,542.8666666666667
351,526.0,541.8333333333334
352,509.0,541.8666666666667
353,470.0,541.5333333333333
354,484.0,540.8333333333334
355,524.0,541.0
356,548.0,540.7
357,504.0,540.7333333333333
358,442.0,541.4666666666667
359,426.0,542.8666666666667
360,478.0,543.5333333333333
361,511.0,541.9333333333333
362,482.0,542.6666666666666
363,452.0,543.3333333333334
364,454.0,543.8333333333334
365,482.0,544.6666666666666
366,496.0,543.6666666666666
367,487.0,544.2666666666667
368,488.0,543.8333333333334
369,493.0,543.7666666666667
370,548.0,544.7666666666667
371,563.0,545.6666666666666
372,537.0,546.1666666666666
373,495.0,544.9
374,530.0,543.7333333333333
375,591.0,545.9333333333333
376,649.0,549.5
377,632.0,553.5
378,577.0,553.7
379,621.0,554.8666666666667
380,671.0,559.0666666666667
381,678.0,564.1333333333333
382,655.0,568.8
383,634.0,571.4666666666667
384,587.0,573.0333333333333
385,580.0,574.9
386,610.0,576.9666666666667
387,565.0,578.4666666666667
388,464.0,577.7333333333333
389,496.0,575.4
390,546.0,575.4
391,574.0,577.4333333333334
392,511.0,576.4666666666667
393,489.0,575.2333333333333
394,497.0,573.8
395,528.0,573.3333333333334
396,560.0,574.4
397,482.0,574.5666666666667
398,425.0,576.6666666666666
399,435.0,578.6
400,504.0,577.6666666666666
401,544.0,577.0333333333333
402,485.0,577.1
403,456.0,578.4
404,468.0,579.2666666666667
405,509.0,576.7333333333333
406,509.0,572.2666666666667
407,478.0,569.4
408,446.0,569.4333333333333
409,450.0,567.8666666666667
410,479.0,563.6666666666666
411,504.0,558.4
412,485.0,554.5333333333333
413,445.0,552.7
414,461.0,551.9
415,519.0,549.8666666666667
416,553.0,547.9666666666667
417,516.0,546.3333333333334
418,488.0,545.5333333333333
419,499.0,545.4333333333333
420,541.0,545.2666666666667
421,565.0,544.9666666666667
422,533.0,545.6333333333333
423,503.0,545.1666666666666
424,520.0,544.9333333333333
425,576.0,546.5333333333333
426,597.0,547.7666666666667
427,542.0,547.7666666666667
428,504.0,545.1333333333333
429,514.0,542.6333333333333
430,549.0,543.6
431,592.0,545.2
432,569.0,546.2
433,530.0,544.9333333333333
434,536.0,544.2666666666667
435,583.0,546.5333333333333
436,616.0,549.9
437,571.0,550.7333333333333
438,507.0,548.7
439,487.0,547.4666666666667
440,556.0,547.8333333333334
441,576.0,549.7
442,531.0,549.4333333333333
443,481.0,548.2333333333333
444,487.0,547.3666666666667
445,539.0,548.0333333333333
446,547.0,547.8333333333334
447,505.0,547.9333333333333
448,462.0,548.8
449,463.0,550.0
450,494.0,549.6333333333333
451,523.0,548.2333333333333
452,485.0,548.4333333333333
453,437.0,550.6333333333333
454,430.0,553.1
455,496.0,551.5
456,522.0,549.0
457,484.0,548.9333333333333
458,441.0,551.0333333333333
459,448.0,553.1
460,496.0,552.4
461,518.0,549.9333333333333
462,464.0,549.6333333333333
463,433.0,551.6666666666666
464,437.0,553.3666666666667
465,485.0,551.9
466,509.0,548.5333333333333
467,473.0,547.8666666666667
468,448.0,549.8333333333334
469,436.0,551.5333333333333
470,466.0,551.6
471,503.0,549.7666666666667
472,463.0,550.7666666666667
473,430.0,552.4666666666667
474,425.0,554.5333333333333
475,470.0,555.0333333333333
476,501.0,554.2333333333333
477,475.0,555.2333333333333
478,421.0,556.6
479,433.0,557.6
480,483.0,557.9666666666667
481,515.0,557.7
482,460.0,558.5333333333333
483,405.0,559.6
484,419.0,559.9666666666667
485,479.0,560.5333333333333
486,508.0,560.3333333333334
487,452.0,561.4
488,417.0,562.2
489,433.0,562.7
490,471.0,563.5333333333333
491,496.0,563.8666666666667
492,467.0,563.7666666666667
493,437.0,563.6333333333333
494,448.0,563.2666666666667
495,497.0,562.8666666666667
496,518.0,562.9666666666667
497,477.0,562.8333333333334
498,445.0,562.9333333333333
499,451.0,562.4333333333333
500,491.0,561.6
501,524.0,561.7
502,488.0,560.8666666666667
503,442.0,560.4666666666667
504,461.0,559.2666666666667
505,505.0,558.1
506,543.0,558.7666666666667
507,498.0,558.0
508,453.0,556.9333333333333
509,461.0,556.0
510,503.0,555.3333333333334
511,533.0,555.9333333333333
512,513.0,554.2333333333333
513,482.0,551.6666666666666
514,478.0,549.7
515,510.0,548.6666666666666
516,534.0,549.2666666666667
517,518.0,547.4666666666667
518,473.0,545.6
519,482.0,543.9666666666667
520,513.0,542.6333333333333
521,532.0,542.7666666666667
522,504.0,541.5333333333333
523,469.0,540.4666666666667
524,471.0,539.7
525,501.0,539.5666666666667
526,534.0,540.1
527,517.0,539.1
528,474.0,538.1333333333333
529,481.0,537.1333333333333
530,513.0,536.4666666666667
531,543.0,537.1
532,514.0,536.3666666666667
533,474.0,535.3
534,482.0,534.6
535,536.0,535.1666666666666
536,554.0,535.5333333333333
537,507.0,535.2333333333333
538,452.0,535.2666666666667
539,464.0,535.1666666666666
540,527.0,535.3666666666667
541,553.0,536.0333333333333
542,522.0,536.3333333333334
543,475.0,536.5666666666667
544,463.0,537.0666666666667
545,509.0,537.1
546,544.0,537.4333333333333
547,512.0,537.2333333333333
548,479.0,537.0333333333333
549,492.0,536.7
550,531.0,537.3
551,546.0,537.7666666666667
552,499.0,537.9333333333333
553,471.0,537.8666666666667
554,492.0,537.1666666666666
555,528.0,537.3333333333334
556,571.0,538.5666666666667
557,526.0,538.8666666666667
558,475.0,538.8333333333334
559,478.0,538.9333333333333
560,519.0,539.1333333333333
561,541.0,539.0666666666667
562,512.0,539.0
563,482.0,538.7333333333333
564,479.0,538.8333333333334
565,523.0,538.4
566,557.0,538.5
567,511.0,538.3666666666667
568,472.0,537.7
569,481.0,537.1333333333333
570,526.0,537.1
571,560.0,537.3333333333334
572,527.0,537.5
573,489.0,537.0333333333333
574,482.0,536.4
575,531.0,536.9333333333333
576,563.0,537.5666666666667
577,528.0,538.1
578,475.0,538.2333333333333
579,486.0,538.4333333333333
580,522.0,538.1333333333333
581,546.0,538.1333333333333
582,509.0,537.8
583,473.0,537.7333333333333
584,483.0,538.0333333333333
585,531.0,538.1333333333333
586,557.0,537.6666666666666
587,517.0,537.3666666666667
588,475.0,537.3666666666667
589,482.0,537.2333333333333
590,531.0,537.6333333333333
591,551.0,537.9666666666667
592,511.0,538.0
593,470.0,538.4
594,479.0,538.4
595,533.0,538.7333333333333
596,558.0,538.7666666666667
597,517.0,538.9
598,475.0,538.8
599,481.0,538.8
600,527.0,538.8333333333334
601,551.0,538.5333333333333
602,518.0,538.2333333333333
603,477.0,538.6333333333333
604,476.0,538.8333333333334
605,528.0,538.7333333333333
606,550.0,538.3
607,514.0,537.8333333333334
608,480.0,537.6666666666666
609,490.0,537.5333333333333
610,531.0,537.8333333333334
611,567.0,538.5333333333333
612,516.0,538.5666666666667
613,485.0,538.1666666666666
614,491.0,537.9
615,527.0,537.7666666666667
616,552.0,537.6
617,523.0,537.8
618,489.0,537.3333333333334
619,490.0,537.0666666666667
620,535.0,537.2
621,554.0,537.3
622,510.0,537.3333333333334
623,473.0,537.2333333333333
624,480.0,537.2
625,539.0,537.4
626,558.0,537.4
627,514.0,537.3
628,491.0,536.7666666666667
629,502.0,536.0666666666667
630,540.0,536.5
631,563.0,536.9
632,529.0,537.2666666666667
633,495.0,536.6666666666666
634,499.0,535.9
635,528.0,535.9
636,559.0,536.2
637,520.0,536.4
638,476.0,536.5333333333333
639,487.0,536.6333333333333
640,525.0,536.4333333333333
641,560.0,536.2
642,520.0,536.3333333333334
643,474.0,536.7
644,486.0,536.8666666666667
645,525.0,536.8
646,548.0,536.6666666666666
647,514.0,536.3666666666667
648,476.0,536.8
649,479.0,537.1666666666666
650,529.0,536.9666666666667
651,566.0,537.3666666666667
652,510.0,537.3666666666667
653,480.0,537.1333333333333
654,494.0,536.6666666666666
655,527.0,536.2666666666667
656,556.0,536.2
657,516.0,536.2666666666667
658,477.0,536.7333333333333
659,480.0,537.4666666666667
660,532.0,537.2
661,556.0,536.9666666666667
662,512.0,536.4
663,473.0,537.1333333333333
664,481.0,537.7333333333333
665,528.0,537.7333333333333
666,550.0,537.4333333333333
667,520.0,537.4333333333333
668,477.0,537.4
669,487.0,537.4
670,535.0,537.7333333333333
671,562.0,537.8
672,518.0,537.7333333333333
673,479.0,537.5666666666667
674,490.0,537.4333333333333
675,535.0,537.7666666666667
676,565.0,538.3333333333334
677,527.0,538.7666666666667
678,488.0,538.3666666666667
679,485.0,538.1666666666666
680,530.0,538.2
681,557.0,537.9
682,527.0,538.3333333333334
683,480.0,538.3333333333334
684,486.0,538.6
685,537.0,538.9333333333333
686,561.0,539.1
687,522.0,539.3
688,473.0,539.4333333333333
689,490.0,539.1
690,537.0,539.2666666666667
691,560.0,539.4
692,516.0,539.5333333333333
693,484.0,539.1666666666666
694,498.0,538.6
695,534.0,538.8
696,549.0,538.7666666666667
697,515.0,538.6
698,481.0,538.4666666666667
699,487.0,538.4666666666667
700,531.0,538.3333333333334
701,555.0,538.1
702,523.0,538.2666666666667
703,473.0,538.4666666666667
704,478.0,538.8666666666667
705,537.0,538.9333333333333
706,557.0,538.6666666666666
707,520.0,538.4333333333333
708,484.0,538.5666666666667
709,479.0,538.7666666666667
710,529.0,538.7333333333333
711,551.0,538.5333333333333
712,513.0,538.0666666666667
713,481.0,538.0333333333333
714,495.0,537.7333333333333
715,537.0,537.7333333333333
716,560.0,537.7
717,519.0,537.6
718,461.0,538.0
719,487.0,538.1
720,541.0,538.2333333333333
721,565.0,538.4
722,519.0,538.5
723,474.0,538.8333333333334
724,480.0,539.4333333333333
725,534.0,539.4333333333333
726,561.0,539.8333333333334
727,524.0,540.1333333333333
728,491.0,539.8
729,495.0,539.5333333333333
730,518.0,539.1
731,556.0,539.1333333333333
732,519.0,539.0
733,491.0,538.4
734,497.0,537.7666666666667
735,536.0,537.7333333333333
736,542.0,537.2333333333333
737,510.0,537.0333333333333
738,476.0,537.3
739,487.0,537.0333333333333
740,534.0,537.2
741,550.0,537.1666666666666
742,513.0,537.1666666666666
743,474.0,537.4
744,482.0,537.8333333333334
745,526.0,537.4666666666667
746,550.0,537.1333333333333
747,502.0,537.2333333333333
748,469.0,536.9666666666667
749,474.0,537.4
750,523.0,536.8
751,558.0,536.5666666666667
752,509.0,536.4333333333333
753,475.0,536.4
754,476.0,536.5333333333333
755,514.0,535.8666666666667
756,550.0,535.5
757,501.0,535.4666666666667
758,463.0,536.4
759,476.0,537.0333333333333
760,515.0,536.9333333333333
761,534.0,536.2
762,508.0,536.1
763,474.0,536.6666666666666
764,481.0,537.2
765,513.0,536.4333333333333
766,537.0,536.2666666666667
767,498.0,536.6666666666666
768,457.0,537.3
769,462.0,538.1333333333333
770,522.0,537.7333333333333
771,536.0,537.2666666666667
772,501.0,537.6
773,466.0,537.8666666666667
774,469.0,538.3
775,511.0,537.8666666666667
776,544.0,537.6666666666666
777,502.0,537.6666666666666
778,472.0,537.5666666666667
779,485.0,537.2
780,523.0,537.2
781,554.0,537.0666666666667
782,519.0,537.2
783,482.0,536.9666666666667
784,482.0,536.7666666666667
785,523.0,537.0666666666667
786,538.0,536.6666666666666
787,506.0,536.5
788,479.0,535.9666666666667
789,488.0,535.5666666666667
790,524.0,535.8666666666667
791,570.0,537.0666666666667
792,530.0,537.5333333333333
793,476.0,537.4666666666667
794,490.0,537.1666666666666
795,533.0,537.8333333333334
796,556.0,538.4666666666667
797,515.0,538.1
798,483.0,537.2333333333333
799,490.0,536.3
800,536.0,536.7666666666667
801,565.0,537.7333333333333
802,526.0,537.8333333333334
803,487.0,537.1333333333333
804,492.0,536.3666666666667
805,532.0,537.0
806,559.0,537.5
807,522.0,537.5
808,476.0,537.3666666666667
809,497.0,536.9666666666667
810,548.0,537.8
811,571.0,538.3666666666667
812,531.0,538.7666666666667
813,487.0,538.6
814,487.0,538.4333333333333
815,531.0,538.7
816,561.0,539.4666666666667
817,521.0,539.5666666666667
818,490.0,539.2
819,497.0,538.9
820,535.0,539.2666666666667
821,562.0,539.0
822,527.0,538.9
823,477.0,538.8666666666667
824,494.0,538.7333333333333
825,533.0,538.7333333333333
826,555.0,538.7
827,522.0,538.9333333333333
828,489.0,538.7333333333333
829,490.0,538.7333333333333
830,532.0,538.6
831,564.0,538.5666666666667
832,534.0,538.8333333333334
833,478.0,539.1333333333333
834,496.0,539.0
835,543.0,539.3666666666667
836,570.0,539.7333333333333
837,526.0,539.8666666666667
838,486.0,539.5333333333333
839,497.0,539.5333333333333
840,536.0,539.1333333333333
841,570.0,539.1
842,542.0,539.4666666666667
843,483.0,539.6
844,487.0,539.6
845,543.0,540.0
846,566.0,540.1666666666666
847,521.0,540.1666666666666
848,475.0,540.6666666666666
849,490.0,540.9
850,539.0,541.0333333333333
851,564.0,541.1
852,524.0,541.0
853,492.0,540.5
854,492.0,540.5666666666667
855,529.0,540.4333333333333
856,556.0,540.4666666666667
857,523.0,540.5
858,483.0,540.7
859,495.0,540.5333333333333
860,541.0,540.8333333333334
861,562.0,540.7666666666667
862,532.0,540.7
863,487.0,540.4
864,486.0,540.7333333333333
865,544.0,540.7666666666667
866,563.0,540.5333333333333
867,518.0,540.2666666666667
868,487.0,540.2333333333333
869,496.0,540.2666666666667
870,540.0,540.4
871,561.0,540.1
872,524.0,539.5
873,480.0,539.6
874,489.0,539.5333333333333
875,537.0,539.3333333333334
876,555.0,538.9666666666667
877,519.0,538.9
878,484.0,538.6
879,493.0,538.5
880,545.0,538.7
881,567.0,538.8
882,525.0,538.8333333333334
883,479.0,539.2666666666667
884,487.0,539.4333333333333
885,534.0,539.6
886,558.0,539.6666666666666
887,521.0,539.6
888,477.0,539.8
889,493.0,539.8666666666667
890,539.0,539.8
891,566.0,539.9333333333333
892,528.0,539.8
893,476.0,540.1666666666666
894,483.0,540.2666666666667
895,533.0,539.9
896,552.0,539.5333333333333
897,521.0,539.6333333333333
898,485.0,539.7
899,488.0,539.9666666666667
900,524.0,539.4333333333333
901,560.0,539.4
902,522.0,539.3333333333334
903,480.0,539.3333333333334
904,497.0,539.0666666666667
905,538.0,539.1
906,558.0,539.2
907,515.0,539.0666666666667
908,469.0,539.5666666666667
909,480.0,540.0
910,530.0,539.5
911,556.0,539.1333333333333
912,521.0,539.0
913,467.0,539.4
914,482.0,539.5666666666667
915,533.0,539.5333333333333
916,556.0,539.4666666666667
917,521.0,539.4666666666667
918,483.0,539.2666666666667
919,485.0,539.5333333333333
920,527.0,539.1333333333333
921,555.0,538.7666666666667
922,515.0,538.3333333333334
923,474.0,538.4
924,483.0,538.4
925,526.0,538.1666666666666
926,555.0,538.2666666666667
927,524.0,538.3666666666667
928,477.0,538.6333333333333
929,484.0,538.7666666666667
930,530.0,538.9666666666667
931,554.0,538.7666666666667
932,514.0,538.5
933,472.0,538.7666666666667
934,487.0,539.1
935,536.0,539.0333333333333
936,558.0,539.0333333333333
937,512.0,538.9333333333333
938,472.0,538.8333333333334
939,481.0,538.8
940,527.0,538.7
941,561.0,538.8666666666667
942,514.0,538.6333333333333
943,466.0,538.6666666666666
944,481.0,538.7
945,527.0,538.5
946,548.0,538.2333333333333
947,523.0,538.3
948,483.0,538.3
949,491.0,538.1
950,530.0,538.2
951,556.0,538.2333333333333
952,517.0,538.3
953,469.0,538.4666666666667
954,474.0,538.7666666666667
955,527.0,538.8
956,562.0,539.0333333333333
957,513.0,538.6666666666666
958,468.0,538.9666666666667
959,483.0,539.0
960,535.0,539.1666666666666
961,554.0,539.1666666666666
962,520.0,539.3666666666667
963,480.0,539.1
964,484.0,539.2
965,529.0,538.9666666666667
966,560.0,539.0333333333333
967,519.0,539.2666666666667
968,482.0,538.9333333333333
969,483.0,538.8666666666667
970,538.0,539.2333333333333
971,562.0,539.2666666666667
972,524.0,539.6
973,489.0,538.8333333333334
974,488.0,538.6
975,529.0,538.6666666666666
976,564.0,539.2
977,512.0,538.8333333333334
978,471.0,539.2333333333333
979,482.0,539.5333333333333
980,523.0,539.3
981,544.0,538.9
982,520.0,539.0
983,485.0,538.4666666666667
984,491.0,537.9
985,526.0,537.8666666666667
986,556.0,537.6666666666666
987,519.0,537.8666666666667
988,475.0,537.6333333333333
989,482.0,537.6666666666666
990,538.0,537.7666666666667
991,562.0,538.0333333333333
992,520.0,538.0333333333333
993,485.0,537.8666666666667
994,479.0,538.0333333333333
995,511.0,537.5
996,547.0,537.0666666666667
997,512.0,536.8333333333334
998,479.0,536.9333333333333
999,487.0,536.8
1000,523.0,536.3
1001,557.0,536.1333333333333
1002,520.0,536.0
1003,475.0,536.4666666666667
1004,480.0,536.7333333333333
1005,530.0,536.7666666666667
1006,560.0,536.6333333333333
1007,519.0,536.8666666666667
1008,478.0,536.6333333333333
1009,478.0,536.7666666666667
1010,527.0,536.9
1011,559.0,537.4
1012,510.0,537.2
1013,470.0,537.7
1014,473.0,538.3
1015,525.0,538.2666666666667
1016,553.0,538.1666666666666
1017,521.0,538.2333333333333
1018,475.0,538.2333333333333
1019,482.0,538.2333333333333
1020,526.0,537.8333333333334
1021,554.0,537.5666666666667
1022,514.0,537.3666666666667
1023,474.0,537.7333333333333
1024,486.0,537.5
1025,529.0,538.0333333333333
1026,557.0,538.3666666666667
1027,520.0,538.6333333333333
1028,471.0,538.9
1029,477.0,539.2333333333333
1030,528.0,539.4
1031,561.0,539.5333333333333
1032,518.0,539.4666666666667
1033,478.0,539.3666666666667
1034,487.0,539.1333333333333
1035,523.0,538.9
1036,554.0,538.7
1037,518.0,538.6666666666666
1038,478.0,538.6666666666666
1039,478.0,538.6666666666666
1040,523.0,538.5333333333333
1041,548.0,538.1666666666666
1042,514.0,538.1666666666666
1043,476.0,537.9666666666667
1044,479.0,537.7666666666667
1045,528.0,537.8666666666667
1046,562.0,538.1666666666666
1047,519.0,538.1
1048,475.0,538.1
1049,487.0,537.9333333333333
1050,522.0,537.8
1051,549.0,537.6333333333333
1052,525.0,538.0
1053,484.0,537.6666666666666
1054,479.0,537.9
1055,517.0,537.5
1056,553.0,537.3666666666667
1057,510.0,537.1666666666666
1058,475.0,537.0333333333333
1059,483.0,536.8333333333334
1060,531.0,536.9333333333333
1061,556.0,536.7666666666667
1062,517.0,536.7333333333333
1063,471.0,536.9666666666667
1064,481.0,537.1666666666666
1065,529.0,537.3666666666667
1066,553.0,537.3333333333334
1067,514.0,537.2
1068,476.0,537.2666666666667
1069,485.0,537.0333333333333
1070,534.0,537.4
1071,554.0,537.6
1072,517.0,537.7
1073,478.0,537.6333333333333
1074,488.0,537.3333333333334
1075,529.0,537.3666666666667
1076,554.0,537.1
1077,513.0,536.9
1078,476.0,536.8666666666667
1079,480.0,537.1
1080,523.0,537.1333333333333
1081,553.0,537.2666666666667
1082,513.0,536.8666666666667
1083,474.0,537.2
1084,481.0,537.1333333333333
1085,528.0,537.5
1086,550.0,537.4
1087,513.0,537.3666666666667
1088,469.0,537.5666666666667
1089,483.0,537.5666666666667
1090,527.0,537.4333333333333
1091,554.0,537.3666666666667
1092,515.0,537.3
1093,474.0,537.2
1094,480.0,537.2333333333333
1095,528.0,537.2
1096,558.0,537.3666666666667
1097,512.0,537.3
1098,476.0,537.3
1099,485.0,537.3
1100,528.0,537.1
1101,557.0,537.2
1102,521.0,537.3333333333334
1103,471.0,537.5666666666667
1104,473.0,538.0666666666667
1105,517.0,537.6666666666666
1106,548.0,537.4666666666667
1107,514.0,537.5
1108,473.0,537.6
1109,487.0,537.3666666666667
1110,534.0,537.7333333333333
1111,556.0,537.8333333333334
1112,522.0,538.1333333333333
1113,480.0,537.9333333333333
1114,477.0,538.0666666666667
1115,528.0,538.0666666666667
1116,557.0,538.3
1117,516.0,538.4
1118,469.0,538.4
1119,479.0,538.5333333333333
1120,530.0,538.6333333333333
1121,558.0,538.7666666666667
1122,522.0,539.0
1123,473.0,539.0333333333333
1124,481.0,539.0
1125,521.0,538.7666666666667
1126,553.0,538.6
1127,517.0,538.7666666666667
1128,470.0,538.9666666666667
1129,478.0,539.2
1130,527.0,539.1666666666666
1131,549.0,538.9
1132,517.0,538.7666666666667
1133,479.0,538.5
1134,477.0,538.3666666666667
1135,527.0,538.7
1136,556.0,538.9666666666667
1137,516.0,539.0333333333333
1138,472.0,539.0666666666667
1139,476.0,539.4333333333333
1140,528.0,539.2333333333333
1141,547.0,538.9333333333333
1142,511.0,538.6333333333333
1143,469.0,539.0
1144,483.0,538.8
1145,529.0,538.8333333333334
1146,557.0,538.8333333333334
1147,518.0,538.9
1148,474.0,538.7333333333333
1149,482.0,538.6333333333333
1150,528.0,538.5666666666667
1151,550.0,538.3
1152,509.0,538.0666666666667
1153,471.0,538.1333333333333
1154,480.0,538.1666666666666
1155,528.0,538.4
1156,555.0,538.4666666666667
1157,511.0,538.3333333333334
1158,480.0,538.0
1159,481.0,537.9
1160,528.0,537.9333333333333
1161,553.0,538.0666666666667
1162,517.0,538.0666666666667
1163,473.0,538.2666666666667
1164,479.0,538.2
1165,523.0,538.0666666666667
1166,551.0,537.9
1167,516.0,537.9
1168,470.0,537.9666666666667
1169,478.0,537.9
1170,526.0,537.8333333333334
1171,551.0,537.9666666666667
1172,514.0,538.0
1173,468.0,538.0333333333333
1174,473.0,538.3666666666667
1175,526.0,538.2666666666667
1176,557.0,538.2666666666667
1177,513.0,538.1
1178,470.0,538.2333333333333
1179,485.0,538.1333333333333
1180,528.0,538.1333333333333
1181,549.0,538.1
1182,511.0,538.0333333333333
1183,475.0,537.9
1184,485.0,537.7333333333333
1185,540.0,538.1333333333333
1186,559.0,538.2666666666667
1187,511.0,538.2666666666667
1188,482.0,538.2
1189,489.0,537.9333333333333
1190,537.0,538.2333333333333
1191,560.0,538.4666666666667
1192,520.0,538.5666666666667
1193,473.0,538.5666666666667
1194,482.0,538.4666666666667
1195,532.0,538.7666666666667
1196,556.0,538.9333333333333
1197,515.0,538.9
1198,476.0,538.7
1199,487.0,538.4
1200,530.0,538.5333333333333
1201,549.0,538.4666666666667
1202,511.0,538.4333333333333
1203,472.0,538.3
1204,479.0,538.1
1205,529.0,538.2
1206,558.0,538.2333333333333
1207,519.0,538.4333333333333
1208,475.0,538.2666666666667
1209,489.0,538.1333333333333
1210,534.0,538.3333333333334
1211,547.0,538.2666666666667
1212,508.0,538.3666666666667
1213,475.0,538.3666666666667
1214,487.0,538.3
1215,535.0,538.1333333333333
1216,559.0,538.1333333333333
1217,512.0,538.1
1218,474.0,538.3666666666667
1219,486.0,538.4666666666667
1220,521.0,537.9333333333333
1221,549.0,537.5666666666667
1222,514.0,537.3666666666667
1223,483.0,537.0333333333333
1224,481.0,537.0666666666667
1225,527.0,536.9
1226,552.0,536.7666666666667
1227,510.0,536.7333333333333
1228,468.0,537.0
1229,482.0,537.1666666666666
1230,527.0,537.0666666666667
1231,552.0,537.1666666666666
1232,520.0,537.4
1233,476.0,537.2666666666667
1234,479.0,537.2666666666667
1235,527.0,537.2
1236,553.0,537.0333333333333
1237,517.0,536.9666666666667
1238,477.0,536.9
1239,485.0,537.0333333333333
1240,531.0,536.9333333333333
1241,557.0,537.2666666666667
1242,511.0,537.1666666666666
1243,467.0,537.4333333333333
1244,477.0,537.7666666666667
1245,523.0,537.3666666666667
1246,555.0,537.2333333333333
1247,520.0,537.5
1248,469.0,537.6666666666666
1249,473.0,538.1
