Action_Label,hiya_up
Fs_Hz,250
Total_Samples,1250

Sample_Index,Raw_EMG,Envelope
0,483.0,529.8333333333334
1,503.0,530.0
2,536.0,530.2666666666667
3,521.0,530.1666666666666
4,484.0,530.4666666666667
5,488.0,530.4333333333333
6,506.0,530.5666666666667
7,526.0,530.0333333333333
8,521.0,529.8333333333334
9,491.0,529.9333333333333
10,488.0,530.0333333333333
11,510.0,529.7333333333333
12,542.0,530.0
13,529.0,529.9
14,491.0,529.9
15,485.0,529.6
16,504.0,529.7666666666667
17,539.0,529.7333333333333
18,527.0,529.9
19,490.0,529.9333333333333
20,485.0,530.1
21,499.0,530.4
22,537.0,530.4333333333333
23,528.0,530.4
24,490.0,530.6
25,484.0,530.7
26,512.0,530.6666666666666
27,536.0,530.5666666666667
28,523.0,530.4666666666667
29,483.0,530.7
30,487.0,530.5666666666667
31,505.0,530.5
32,535.0,530.4666666666667
33,529.0,530.7333333333333
34,490.0,530.5333333333333
35,484.0,530.6666666666666
36,505.0,530.7
37,538.0,531.1
38,533.0,531.5
39,491.0,531.5
40,478.0,531.8333333333334
41,509.0,531.8666666666667
42,542.0,531.8666666666667
43,526.0,531.7666666666667
44,489.0,531.8333333333334
45,487.0,531.7666666666667
46,515.0,531.6
47,538.0,531.5666666666667
48,522.0,531.4
49,485.0,531.5666666666667
50,477.0,531.8333333333334
51,498.0,531.8666666666667
52,528.0,531.5666666666667
53,527.0,531.5333333333333
54,490.0,531.5333333333333
55,485.0,531.5
56,508.0,531.6333333333333
57,537.0,531.6666666666666
58,526.0,531.7666666666667
59,490.0,531.5333333333333
60,486.0,531.5666666666667
61,512.0,531.3333333333334
62,540.0,531.5
63,525.0,531.3666666666667
64,487.0,531.4666666666667
65,488.0,531.3333333333334
66,509.0,531.2
67,530.0,530.9333333333333
68,521.0,530.5333333333333
69,492.0,530.5
70,487.0,530.2
71,505.0,530.3333333333334
72,529.0,529.9
73,524.0,529.8333333333334
74,488.0,529.8666666666667
75,482.0,530.0333333333333
76,499.0,530.3666666666667
77,529.0,530.0666666666667
78,530.0,530.3333333333334
79,496.0,529.9666666666667
80,490.0,529.5333333333333
81,509.0,529.1666666666666
82,534.0,529.3666666666667
83,530.0,529.4666666666667
84,493.0,529.3666666666667
85,489.0,529.2333333333333
86,512.0,529.1
87,540.0,529.2
88,530.0,529.3333333333334
89,493.0,529.2333333333333
90,486.0,529.2333333333333
91,506.0,529.4333333333333
92,537.0,529.3333333333334
93,524.0,529.3
94,497.0,528.9666666666667
95,494.0,528.7666666666667
96,510.0,528.7333333333333
97,538.0,529.0
98,523.0,529.0666666666667
99,488.0,529.2
100,488.0,529.1666666666666
101,508.0,529.0666666666667
102,538.0,529.3666666666667
103,536.0,529.7666666666667
104,492.0,529.6333333333333
105,487.0,529.4666666666667
106,507.0,529.2
107,531.0,529.2666666666667
108,524.0,529.0666666666667
109,490.0,529.2666666666667
110,486.0,529.4
111,511.0,529.3333333333334
112,546.0,529.7333333333333
113,536.0,529.9333333333333
114,494.0,529.9
115,487.0,529.9666666666667
116,506.0,530.1666666666666
117,530.0,529.8333333333334
118,527.0,529.7333333333333
119,500.0,529.5
120,492.0,529.3
121,505.0,529.3333333333334
122,534.0,529.2333333333333
123,532.0,529.5
124,491.0,529.7
125,486.0,529.9666666666667
126,509.0,530.0
127,540.0,530.0666666666667
128,530.0,530.3
129,490.0,530.2333333333333
130,489.0,530.2
131,511.0,530.1
132,536.0,530.0333333333333
133,526.0,529.7
134,494.0,529.6333333333333
135,483.0,529.7666666666667
136,502.0,529.9333333333333
137,535.0,530.0666666666667
138,532.0,530.3333333333334
139,493.0,530.2333333333333
140,491.0,530.0666666666667
141,515.0,530.1333333333333
142,536.0,529.8
143,530.0,529.6
144,495.0,529.5666666666667
145,485.0,529.6333333333333
146,504.0,529.7
147,533.0,529.8
148,530.0,529.9
149,492.0,530.1666666666666
150,484.0,530.4333333333333
151,505.0,530.4333333333333
152,535.0,530.4666666666667
153,527.0,530.3
154,494.0,530.2
155,492.0,530.0
156,510.0,529.9666666666667
157,535.0,529.8
158,526.0,529.6666666666666
159,500.0,529.3333333333334
160,495.0,529.1333333333333
161,514.0,529.1666666666666
162,532.0,529.0333333333333
163,521.0,528.8666666666667
164,488.0,529.0666666666667
165,491.0,528.8
166,512.0,528.4666666666667
167,542.0,528.7
168,532.0,528.7
169,499.0,528.5
170,493.0,528.4333333333333
171,513.0,528.3666666666667
172,539.0,528.4666666666667
173,529.0,528.4333333333333
174,489.0,528.6333333333333
175,491.0,528.4333333333333
176,505.0,528.4
177,532.0,528.3666666666667
178,534.0,528.5
179,495.0,528.4
180,489.0,528.2333333333333
181,510.0,528.0666666666667
182,542.0,528.3
183,530.0,528.4
184,490.0,528.5333333333333
185,487.0,528.7
186,506.0,528.8333333333334
187,538.0,528.9333333333333
188,526.0,528.9333333333333
189,492.0,529.2
190,482.0,529.6333333333333
191,506.0,529.7666666666667
192,537.0,529.9333333333333
193,524.0,530.0333333333333
194,496.0,529.7666666666667
195,491.0,529.7666666666667
196,515.0,529.8666666666667
197,538.0,529.7333333333333
198,525.0,529.5
199,495.0,529.6333333333333
200,483.0,529.9666666666667
201,503.0,530.2333333333333
202,538.0,530.2
203,532.0,530.3
204,493.0,530.1666666666666
205,483.0,530.4333333333333
206,508.0,530.3333333333334
207,534.0,530.4
208,525.0,530.1
209,489.0,530.3
210,489.0,530.3
211,507.0,530.4
212,532.0,530.0666666666667
213,528.0,530.0
214,496.0,529.8
215,491.0,529.6666666666666
216,504.0,529.7333333333333
217,534.0,529.6
218,527.0,529.6333333333333
219,493.0,529.6
220,488.0,529.4
221,501.0,529.5666666666667
222,526.0,529.2
223,526.0,529.2666666666667
224,487.0,529.5666666666667
225,476.0,530.0666666666667
226,507.0,530.1333333333333
227,539.0,530.1666666666666
228,540.0,530.6666666666666
229,499.0,530.5333333333333
230,488.0,530.3666666666667
231,503.0,530.3666666666667
232,537.0,530.3333333333334
233,530.0,530.2666666666667
234,492.0,530.3
235,489.0,530.1
236,510.0,530.0333333333333
237,534.0,530.0333333333333
238,522.0,529.9333333333333
239,485.0,530.0666666666667
240,487.0,530.1333333333333
241,510.0,530.0333333333333
242,535.0,530.1333333333333
243,534.0,530.3333333333334
244,498.0,530.2666666666667
245,485.0,530.4666666666667
246,513.0,530.2333333333333
247,539.0,530.4
248,532.0,530.5666666666667
249,499.0,530.3666666666667
250,488.0,530.3666666666667
251,512.0,530.0
252,535.0,530.3
253,528.0,530.3666666666667
254,491.0,530.2333333333333
255,484.0,529.9666666666667
256,508.0,529.9333333333333
257,532.0,529.7
258,532.0,529.4333333333333
259,496.0,529.5333333333333
260,492.0,529.4
261,509.0,529.2
262,533.0,529.0666666666667
263,525.0,528.9
264,487.0,529.0666666666667
265,480.0,529.3666666666667
266,505.0,529.5333333333333
267,527.0,529.3
268,533.0,529.6666666666666
269,497.0,529.2666666666667
270,491.0,529.1333333333333
271,513.0,529.1
272,535.0,529.1
273,532.0,529.0333333333333
274,493.0,529.2
275,487.0,529.1333333333333
276,508.0,529.2333333333333
277,541.0,529.3
278,526.0,529.1
279,488.0,529.4666666666667
280,483.0,529.6333333333333
281,511.0,529.6666666666666
282,538.0,529.7666666666667
283,530.0,529.8333333333334
284,494.0,529.7333333333333
285,483.0,529.7666666666667
286,501.0,530.0
287,532.0,530.0
288,528.0,529.8666666666667
289,495.0,529.9
290,483.0,530.2
291,499.0,530.5333333333333
292,535.0,530.6
293,531.0,530.8
294,494.0,530.5666666666667
295,481.0,530.5333333333333
296,502.0,530.6333333333333
297,530.0,530.7333333333333
298,531.0,530.6666666666666
299,498.0,530.6333333333333
300,491.0,530.6333333333333
301,508.0,530.7333333333333
302,532.0,530.6333333333333
303,531.0,530.6
304,485.0,530.8666666666667
305,477.0,531.2
306,507.0,531.2333333333333
307,533.0,530.9666666666667
308,527.0,531.0
309,490.0,530.9333333333333
310,490.0,530.7
311,507.0,530.8333333333334
312,527.0,530.4666666666667
313,530.0,530.4666666666667
314,491.0,530.5666666666667
315,488.0,530.4
316,506.0,530.2333333333333
317,534.0,530.3
318,528.0,530.3
319,487.0,530.5666666666667
320,480.0,530.6666666666666
321,504.0,530.5
322,536.0,530.5333333333333
323,528.0,530.4333333333333
324,489.0,530.6
325,488.0,530.3666666666667
326,509.0,530.1333333333333
327,539.0,530.4333333333333
328,528.0,530.3333333333334
329,492.0,530.5333333333333
330,490.0,530.5666666666667
331,509.0,530.5333333333333
332,536.0,530.6666666666666
333,533.0,530.7333333333333
334,489.0,530.6
335,483.0,530.4
336,505.0,530.4666666666667
337,536.0,530.5666666666667
338,525.0,530.5
339,494.0,530.3666666666667
340,488.0,530.4333333333333
341,511.0,530.3
342,535.0,530.5666666666667
343,531.0,530.6
344,494.0,530.5
345,494.0,530.3
346,509.0,530.2
347,523.0,529.8333333333334
348,526.0,529.7666666666667
349,483.0,529.9
350,483.0,529.8
351,512.0,529.5333333333333
352,531.0,529.3666666666667
353,532.0,529.5
354,501.0,529.1
355,497.0,528.8
356,505.0,528.9333333333333
357,525.0,528.4666666666667
358,526.0,528.4
359,494.0,528.3333333333334
360,495.0,528.1666666666666
361,504.0,528.3333333333334
362,535.0,528.3
363,518.0,527.8
364,482.0,528.0333333333333
365,489.0,527.8333333333334
366,509.0,527.7
367,540.0,527.8333333333334
368,511.0,527.4333333333333
369,491.0,527.5333333333333
370,491.0,527.4333333333333
371,511.0,527.4333333333333
372,540.0,527.6
373,538.0,527.8333333333334
374,501.0,527.6
375,498.0,527.4666666666667
376,512.0,527.3666666666667
377,543.0,528.0333333333333
378,537.0,528.4
379,498.0,527.9
380,488.0,527.7333333333333
381,516.0,527.8666666666667
382,535.0,528.0
383,526.0,527.8
384,503.0,527.7333333333333
385,505.0,527.4666666666667
386,572.0,529.2333333333333
387,636.0,532.9333333333333
388,654.0,537.2
389,616.0,540.0666666666667
390,571.0,541.4666666666667
391,616.0,544.6666666666666
392,605.0,547.0
393,586.0,549.2666666666667
394,544.0,549.3333333333334
395,591.0,551.2
396,590.0,553.7
397,615.0,556.2
398,557.0,557.6666666666666
399,428.0,559.7666666666667
400,444.0,561.3333333333334
401,484.0,562.2333333333333
402,561.0,562.9333333333333
403,580.0,564.3333333333334
404,625.0,567.7333333333333
405,519.0,567.5
406,430.0,570.2333333333333
407,388.0,573.3333333333334
408,408.0,575.9666666666667
409,376.0,580.0333333333333
410,466.0,580.7666666666667
411,520.0,580.9
412,549.0,581.3666666666667
413,491.0,581.6
414,444.0,583.5666666666666
415,420.0,586.4
416,455.0,586.3
417,533.0,582.8666666666667
418,553.0,579.5
419,500.0,576.4333333333334
420,530.0,575.0666666666667
421,545.0,572.7
422,551.0,570.9
423,508.0,568.5666666666667
424,431.0,570.2
425,483.0,568.5333333333333
426,522.0,566.2666666666667
427,572.0,564.8333333333334
428,575.0,565.4333333333333
429,566.0,564.4333333333333
430,591.0,564.8
431,616.0,567.3333333333334
432,646.0,570.1666666666666
433,649.0,572.4666666666667
434,606.0,571.8333333333334
435,606.0,574.7333333333333
436,614.0,575.4
437,609.0,574.5
438,581.0,573.3333333333334
439,512.0,568.8
440,542.0,568.2666666666667
441,581.0,570.3
442,581.0,571.3666666666667
443,579.0,572.9
444,575.0,572.7333333333333
445,613.0,573.0333333333333
446,577.0,573.3
447,577.0,574.7666666666667
448,499.0,573.8333333333334
449,525.0,573.8666666666667
450,596.0,576.0666666666666
451,594.0,577.7
452,553.0,577.7666666666667
453,512.0,577.6333333333333
454,466.0,576.4666666666667
455,442.0,577.8333333333334
456,396.0,581.3666666666667
457,373.0,584.0
458,348.0,587.3666666666667
459,354.0,590.8333333333334
460,360.0,593.2666666666667
461,377.0,594.3
462,382.0,594.1666666666666
463,375.0,594.1666666666666
464,406.0,594.5666666666666
465,404.0,595.0333333333333
466,391.0,595.6666666666666
467,394.0,596.3666666666667
468,410.0,597.4666666666667
469,435.0,600.0333333333333
470,447.0,601.2
471,480.0,599.9666666666667
472,504.0,597.9333333333334
473,513.0,595.7333333333333
474,496.0,594.1666666666666
475,505.0,591.0333333333333
476,528.0,589.4
477,523.0,587.6
478,529.0,587.7333333333333
479,518.0,587.5
480,507.0,584.8666666666667
481,495.0,582.7
482,528.0,581.8666666666667
483,544.0,582.9333333333334
484,510.0,581.4666666666667
485,517.0,579.3
486,528.0,575.9666666666667
487,519.0,571.5666666666667
488,506.0,566.3
489,493.0,561.6666666666666
490,509.0,556.7
491,514.0,552.2666666666667
492,513.0,547.9666666666667
493,483.0,544.3666666666667
494,461.0,542.5333333333333
495,448.0,541.0666666666667
496,470.0,538.4333333333333
497,482.0,535.5
498,491.0,532.8
499,472.0,531.5666666666667
500,479.0,530.5
501,500.0,529.8333333333334
502,504.0,529.8333333333334
503,488.0,530.6
504,487.0,530.9
505,496.0,531.2
506,497.0,531.1666666666666
507,505.0,531.0333333333333
508,512.0,530.4666666666667
509,495.0,530.8333333333334
510,488.0,531.4666666666667
511,502.0,531.2333333333333
512,498.0,531.1666666666666
513,492.0,530.7666666666667
514,491.0,531.4
515,484.0,532.1666666666666
516,491.0,532.3333333333334
517,533.0,532.8
518,538.0,533.4666666666667
519,490.0,533.5666666666667
520,493.0,534.1
521,522.0,534.3666666666667
522,531.0,534.9666666666667
523,524.0,534.4
524,477.0,533.8666666666667
525,483.0,532.7
526,523.0,531.6666666666666
527,538.0,531.5333333333333
528,540.0,531.7666666666667
529,519.0,530.6666666666666
530,556.0,531.0333333333333
531,543.0,531.6666666666666
532,542.0,532.4
533,534.0,532.3333333333334
534,519.0,531.7333333333333
535,520.0,531.4666666666667
536,526.0,531.4333333333333
537,512.0,531.2
538,509.0,531.3
539,489.0,531.5
540,496.0,531.2333333333333
541,502.0,531.2333333333333
542,508.0,530.9
543,525.0,530.6666666666666
544,473.0,531.2666666666667
545,430.0,533.0666666666667
546,474.0,533.6333333333333
547,545.0,534.0333333333333
548,554.0,534.5666666666667
549,526.0,534.3
550,511.0,533.7
551,509.0,533.4666666666667
552,514.0,532.9
553,521.0,532.8
554,514.0,531.7
555,514.0,530.8
556,514.0,530.5
557,523.0,530.0
558,526.0,529.5333333333333
559,514.0,529.3666666666667
560,509.0,528.0
561,495.0,527.5333333333333
562,521.0,526.8333333333334
563,513.0,526.1333333333333
564,499.0,526.3333333333334
565,511.0,526.1
566,527.0,526.1333333333333
567,521.0,526.4333333333333
568,523.0,526.7
569,522.0,526.2666666666667
570,517.0,525.9
571,517.0,525.7333333333333
572,516.0,525.7333333333333
573,506.0,525.5
574,479.0,525.3
575,466.0,524.1
576,480.0,523.9
577,511.0,522.8333333333334
578,494.0,522.0333333333333
579,471.0,522.9333333333333
580,500.0,523.3
581,505.0,523.4333333333333
582,512.0,523.3666666666667
583,521.0,523.3666666666667
584,506.0,523.5
585,497.0,523.9333333333333
586,491.0,524.5666666666667
587,502.0,524.5333333333333
588,518.0,524.2666666666667
589,490.0,524.9333333333333
590,483.0,525.8
591,485.0,526.1333333333333
592,523.0,526.2
593,519.0,526.4
594,495.0,526.5333333333333
595,482.0,527.5
596,490.0,527.7333333333333
597,500.0,527.8333333333334
598,465.0,529.0333333333333
599,470.0,530.1
600,493.0,530.5666666666667
601,489.0,531.1666666666666
602,495.0,531.6
603,517.0,531.5666666666667
604,494.0,531.0666666666667
605,492.0,530.2
606,513.0,529.1666666666666
607,536.0,529.9333333333333
608,520.0,529.6
609,492.0,528.9
610,479.0,529.6
611,495.0,529.9333333333333
612,503.0,530.2333333333333
613,509.0,530.0333333333333
614,489.0,530.6
615,483.0,531.0666666666667
616,484.0,531.3
617,492.0,531.6333333333333
618,487.0,532.2666666666667
619,465.0,533.1
620,485.0,533.0333333333333
621,511.0,532.1666666666666
622,522.0,532.1333333333333
623,512.0,531.9
624,495.0,531.9
625,489.0,531.6666666666666
626,478.0,532.0666666666667
627,491.0,532.3666666666667
628,496.0,531.3333333333334
629,491.0,530.6333333333333
630,494.0,530.6
631,490.0,530.5666666666667
632,506.0,530.2
633,497.0,530.5333333333333
634,482.0,530.9333333333333
635,494.0,530.8666666666667
636,501.0,531.2
637,506.0,530.6
638,501.0,530.7
639,508.0,530.1666666666666
640,513.0,529.1
641,514.0,528.6
642,527.0,528.8
643,515.0,528.8
644,486.0,528.9
645,469.0,529.3666666666667
646,479.0,529.5333333333333
647,518.0,529.0666666666667
648,527.0,528.7333333333333
649,507.0,527.3333333333334
650,469.0,527.8666666666667
651,467.0,529.3333333333334
652,518.0,529.2
653,527.0,529.7
654,508.0,529.2666666666667
655,524.0,528.9
656,531.0,528.4
657,528.0,528.2333333333333
658,516.0,527.8333333333334
659,496.0,527.6666666666666
660,489.0,527.8333333333334
661,494.0,527.7
662,505.0,527.7333333333333
663,495.0,527.8
664,482.0,527.8
665,509.0,527.3
666,497.0,527.4333333333333
667,524.0,527.6333333333333
668,528.0,527.8
669,531.0,528.3
670,520.0,528.5333333333333
671,511.0,528.5
672,524.0,528.4
673,526.0,528.7666666666667
674,509.0,528.0
675,507.0,526.7333333333333
676,491.0,526.3333333333334
677,496.0,526.6666666666666
678,500.0,526.5666666666667
679,517.0,526.5666666666667
680,526.0,525.6
681,513.0,524.1333333333333
682,506.0,524.1333333333333
683,475.0,524.8666666666667
684,462.0,526.4
685,506.0,526.2
686,503.0,525.8666666666667
687,556.0,526.8
688,556.0,528.1333333333333
689,523.0,527.9666666666667
690,511.0,527.2333333333333
691,529.0,527.2
692,545.0,528.0666666666667
693,538.0,528.3666666666667
694,520.0,527.6333333333333
695,523.0,527.9
696,524.0,527.8
697,525.0,527.8333333333334
698,495.0,527.8666666666667
699,467.0,528.7333333333333
700,499.0,528.9
701,484.0,529.8
702,526.0,529.8666666666667
703,503.0,529.7
704,498.0,530.0666666666667
705,522.0,530.2333333333333
706,541.0,530.5
707,539.0,530.8666666666667
708,537.0,531.3
709,511.0,531.1666666666666
710,515.0,530.8
711,523.0,531.1333333333333
712,527.0,531.4333333333333
713,517.0,530.3666666666667
714,504.0,528.9666666666667
715,490.0,529.5
716,504.0,529.4666666666667
717,533.0,528.7
718,535.0,528.0
719,495.0,528.2
720,506.0,528.3666666666667
721,514.0,527.8666666666667
722,506.0,526.9666666666667
723,498.0,526.5666666666667
724,500.0,526.7
725,526.0,526.8
726,519.0,526.6333333333333
727,527.0,526.7
728,524.0,526.5333333333333
729,504.0,525.3
730,489.0,525.6333333333333
731,501.0,525.0666666666667
732,519.0,524.8333333333334
733,517.0,524.7
734,500.0,524.6333333333333
735,500.0,524.7
736,503.0,524.0333333333333
737,521.0,523.4333333333333
738,520.0,522.8666666666667
739,494.0,523.4333333333333
740,487.0,524.1666666666666
741,492.0,524.4666666666667
742,517.0,524.1333333333333
743,508.0,524.1
744,509.0,523.9333333333333
745,521.0,523.5
746,514.0,523.3
747,526.0,523.0666666666667
748,513.0,522.3333333333334
749,492.0,522.4333333333333
750,483.0,523.2
751,496.0,523.6666666666666
752,533.0,524.1666666666666
753,528.0,524.2333333333333
754,497.0,524.3333333333334
755,497.0,524.3666666666667
756,520.0,524.4
757,521.0,524.2
758,500.0,524.2
759,480.0,525.0
760,498.0,524.7
761,520.0,524.6
762,510.0,524.4333333333333
763,508.0,524.4
764,502.0,524.3333333333334
765,497.0,524.4333333333333
766,510.0,524.2
767,527.0,524.4
768,525.0,524.5666666666667
769,500.0,524.3666666666667
770,501.0,523.9
771,474.0,524.5
772,525.0,524.7666666666667
773,529.0,525.2
774,495.0,525.6666666666666
775,486.0,526.2333333333333
776,522.0,526.5
777,526.0,526.5
778,509.0,526.5666666666667
779,488.0,526.7
780,505.0,525.9666666666667
781,521.0,525.7333333333333
782,529.0,525.6
783,524.0,525.4666666666667
784,504.0,525.2333333333333
785,503.0,525.0333333333333
786,504.0,525.0333333333333
787,517.0,524.9
788,502.0,524.8333333333334
789,481.0,524.8
790,493.0,524.9666666666667
791,518.0,524.9
792,523.0,525.2
793,516.0,525.2
794,500.0,525.2666666666667
795,496.0,525.3
796,497.0,525.7333333333333
797,518.0,525.4333333333333
798,524.0,525.4
799,508.0,525.1333333333333
800,509.0,524.8666666666667
801,510.0,523.6666666666666
802,516.0,523.3666666666667
803,518.0,523.0
804,506.0,522.6333333333333
805,504.0,522.0333333333333
806,505.0,521.9333333333333
807,504.0,521.7333333333333
808,502.0,521.9666666666667
809,492.0,521.8333333333334
810,494.0,522.2
811,504.0,522.1666666666666
812,518.0,521.8
813,511.0,521.4333333333333
814,509.0,521.2666666666667
815,511.0,521.0
816,515.0,520.8333333333334
817,521.0,520.9666666666667
818,519.0,520.8666666666667
819,494.0,520.4333333333333
820,479.0,520.9
821,511.0,520.7333333333333
822,538.0,521.2333333333333
823,531.0,521.7333333333333
824,506.0,521.5333333333333
825,508.0,521.1333333333333
826,514.0,520.7
827,526.0,520.9666666666667
828,524.0,520.9666666666667
829,505.0,521.0666666666667
830,504.0,521.2333333333333
831,518.0,521.3666666666667
832,524.0,521.6333333333333
833,517.0,521.6
834,496.0,521.9333333333333
835,498.0,522.1333333333333
836,497.0,522.4
837,519.0,522.3666666666667
838,527.0,522.5333333333333
839,500.0,522.2666666666667
840,504.0,521.9333333333333
841,516.0,521.8
842,521.0,521.9
843,497.0,522.3666666666667
844,504.0,522.5333333333333
845,518.0,522.7
846,528.0,523.1333333333333
847,528.0,523.3666666666667
848,526.0,523.6
849,510.0,523.0666666666667
850,506.0,522.1666666666666
851,507.0,522.3
852,512.0,521.4333333333333
853,517.0,520.9666666666667
854,493.0,521.4
855,484.0,522.2
856,504.0,522.4
857,509.0,522.0333333333333
858,503.0,521.9333333333333
859,506.0,521.9
860,517.0,521.8
861,527.0,522.1
862,528.0,522.2333333333333
863,520.0,522.3333333333334
864,514.0,521.8666666666667
865,508.0,521.5333333333333
866,517.0,521.2
867,525.0,521.4
868,508.0,521.0333333333333
869,501.0,521.0
870,507.0,520.9
871,502.0,521.1
872,503.0,521.1
873,507.0,520.7666666666667
874,497.0,521.0
875,517.0,520.9666666666667
876,527.0,520.9333333333333
877,543.0,521.4333333333333
878,540.0,521.9
879,522.0,522.1666666666666
880,511.0,522.0
881,511.0,521.8666666666667
882,523.0,522.2333333333333
883,529.0,522.6333333333333
884,511.0,522.0333333333333
885,506.0,521.3
886,519.0,521.2666666666667
887,521.0,521.4666666666667
888,486.0,522.0333333333333
889,504.0,522.1
890,532.0,522.6
891,539.0,523.0
892,547.0,523.6333333333333
893,534.0,524.1
894,507.0,524.2
895,511.0,524.1
896,518.0,524.1333333333333
897,531.0,524.3333333333334
898,536.0,525.0
899,512.0,524.6333333333333
900,499.0,524.9
901,504.0,524.8333333333334
902,512.0,524.5333333333333
903,515.0,524.4666666666667
904,513.0,524.0
905,507.0,524.0
906,502.0,523.8333333333334
907,520.0,523.0666666666667
908,530.0,522.7333333333333
909,518.0,522.6
910,502.0,522.9
911,532.0,523.5333333333333
912,551.0,524.4666666666667
913,542.0,524.9
914,516.0,525.0
915,510.0,524.8666666666667
916,513.0,524.6666666666666
917,536.0,525.1666666666666
918,529.0,524.8666666666667
919,509.0,524.7
920,505.0,524.2666666666667
921,508.0,523.5
922,516.0,522.4666666666667
923,505.0,521.9666666666667
924,511.0,521.8333333333334
925,501.0,522.1666666666666
926,514.0,522.0333333333333
927,536.0,522.2
928,537.0,522.2333333333333
929,516.0,522.3666666666667
930,517.0,522.1
931,507.0,522.0
932,521.0,522.3
933,527.0,522.7
934,522.0,523.0
935,515.0,522.9333333333333
936,521.0,522.9
937,531.0,523.2666666666667
938,522.0,523.0
939,498.0,523.2666666666667
940,502.0,523.2666666666667
941,513.0,522.6333333333333
942,524.0,521.7333333333333
943,523.0,521.1
944,498.0,521.4333333333333
945,490.0,522.1
946,503.0,522.3666666666667
947,533.0,522.2666666666667
948,536.0,522.5
949,517.0,522.5666666666667
950,513.0,522.3666666666667
951,515.0,522.3333333333334
952,526.0,522.6666666666666
953,531.0,523.0666666666667
954,513.0,523.0666666666667
955,502.0,523.0333333333333
956,509.0,523.0666666666667
957,526.0,522.7333333333333
958,519.0,522.1333333333333
959,501.0,522.3666666666667
960,497.0,522.7
961,496.0,523.0666666666667
962,527.0,523.2666666666667
963,527.0,523.2666666666667
964,511.0,522.9666666666667
965,499.0,523.3
966,512.0,523.0
967,535.0,523.1333333333333
968,524.0,523.2
969,505.0,522.9666666666667
970,517.0,522.8
971,523.0,523.1333333333333
972,520.0,523.0
973,512.0,522.6333333333333
974,507.0,522.3333333333334
975,516.0,521.7333333333333
976,521.0,521.7333333333333
977,527.0,521.5333333333333
978,520.0,521.0
979,498.0,521.3
980,496.0,521.8
981,509.0,521.8
982,527.0,521.8333333333334
983,524.0,521.6
984,505.0,521.8
985,495.0,522.0333333333333
986,498.0,522.4
987,529.0,522.5
988,529.0,522.8333333333334
989,512.0,522.4666666666667
990,518.0,522.1666666666666
991,516.0,521.7666666666667
992,528.0,521.8
993,531.0,521.9333333333333
994,513.0,521.9333333333333
995,511.0,521.5333333333333
996,522.0,521.8666666666667
997,529.0,521.6666666666666
998,521.0,521.5666666666667
999,502.0,521.6666666666666
1000,506.0,521.7
1001,518.0,521.5333333333333
1002,520.0,521.5333333333333
1003,521.0,521.8333333333334
1004,502.0,522.0
1005,507.0,522.0333333333333
1006,517.0,521.9
1007,523.0,521.7666666666667
1008,518.0,521.7
1009,498.0,521.7
1010,503.0,521.4666666666667
1011,505.0,521.6
1012,505.0,521.3333333333334
1013,516.0,521.0666666666667
1014,534.0,521.5666666666667
1015,532.0,521.6666666666666
1016,534.0,521.9333333333333
1017,545.0,522.4666666666667
1018,526.0,522.3666666666667
1019,508.0,522.5
1020,511.0,522.3333333333334
1021,521.0,522.5
1022,528.0,522.5
1023,519.0,522.1
1024,510.0,522.1333333333333
1025,512.0,522.1
1026,515.0,521.8666666666667
1027,516.0,521.4333333333333
1028,512.0,521.1333333333333
1029,514.0,520.8666666666667
1030,510.0,520.7333333333333
1031,520.0,520.8
1032,528.0,521.0666666666667
1033,521.0,521.0666666666667
1034,500.0,521.1333333333333
1035,508.0,521.1
1036,517.0,521.1
1037,528.0,521.2666666666667
1038,522.0,521.4
1039,504.0,521.2
1040,516.0,521.0333333333333
1041,511.0,520.8333333333334
1042,528.0,521.1333333333333
1043,513.0,521.0333333333333
1044,501.0,520.6666666666666
1045,515.0,520.1
1046,512.0,519.3666666666667
1047,524.0,518.6666666666666
1048,532.0,518.8666666666667
1049,513.0,518.7666666666667
1050,493.0,519.3666666666667
1051,524.0,519.4666666666667
1052,543.0,519.9666666666667
1053,535.0,520.5
1054,514.0,520.5
1055,518.0,520.7
1056,520.0,520.8666666666667
1057,532.0,521.4
1058,531.0,522.0333333333333
1059,510.0,522.0333333333333
1060,498.0,522.4333333333333
1061,509.0,522.2666666666667
1062,515.0,521.8333333333334
1063,517.0,521.7
1064,505.0,521.5333333333333
1065,518.0,521.6
1066,525.0,521.8666666666667
1067,524.0,521.7333333333333
1068,514.0,521.4666666666667
1069,501.0,521.5666666666667
1070,494.0,522.0333333333333
1071,505.0,522.2333333333333
1072,545.0,522.8
1073,542.0,523.7666666666667
1074,517.0,523.5666666666667
1075,513.0,523.5
1076,517.0,523.6666666666666
1077,527.0,523.7666666666667
1078,521.0,523.4
1079,507.0,523.5333333333333
1080,501.0,523.2666666666667
1081,502.0,523.2
1082,523.0,522.5333333333333
1083,523.0,522.1333333333333
1084,506.0,522.2666666666667
1085,499.0,522.5
1086,503.0,522.5333333333333
1087,529.0,522.4333333333333
1088,525.0,522.2333333333333
1089,505.0,522.4
1090,495.0,522.5
1091,503.0,522.7
1092,530.0,523.2
1093,527.0,523.5333333333333
1094,513.0,523.3333333333334
1095,512.0,523.1333333333333
1096,516.0,522.8333333333334
1097,527.0,522.9333333333333
1098,521.0,523.1666666666666
1099,501.0,523.1666666666666
1100,496.0,523.1
1101,505.0,523.1
1102,512.0,522.0
1103,520.0,521.2666666666667
1104,502.0,521.4333333333333
1105,499.0,521.8333333333334
1106,501.0,522.0333333333333
1107,510.0,521.6
1108,515.0,521.4
1109,501.0,521.6
1110,485.0,522.1333333333333
1111,510.0,521.8666666666667
1112,536.0,522.3
1113,527.0,522.4333333333333
1114,500.0,522.6333333333333
1115,507.0,522.3666666666667
1116,514.0,522.1333333333333
1117,532.0,522.2333333333333
1118,525.0,522.2333333333333
1119,502.0,522.3333333333334
1120,500.0,522.1666666666666
1121,502.0,522.2
1122,501.0,521.9666666666667
1123,510.0,521.5333333333333
1124,512.0,521.5
1125,509.0,521.6
1126,497.0,521.9666666666667
1127,504.0,521.7333333333333
1128,522.0,521.7666666666667
1129,507.0,521.5666666666667
1130,523.0,521.4
1131,525.0,521.6
1132,525.0,522.0333333333333
1133,523.0,522.1333333333333
1134,507.0,521.9666666666667
1135,506.0,521.7333333333333
1136,511.0,521.4
1137,521.0,521.6333333333333
1138,515.0,521.6333333333333
1139,501.0,521.6333333333333
1140,496.0,521.2666666666667
1141,504.0,521.4666666666667
1142,513.0,520.7
1143,513.0,520.2333333333333
1144,496.0,520.3666666666667
1145,502.0,520.5333333333333
1146,508.0,520.6
1147,521.0,520.2333333333333
1148,520.0,520.0666666666667
1149,497.0,520.2333333333333
1150,489.0,520.6
1151,484.0,521.2
1152,505.0,521.0666666666667
1153,526.0,521.4666666666667
1154,516.0,521.6
1155,510.0,521.5666666666667
1156,523.0,521.4333333333333
1157,512.0,521.1666666666666
1158,512.0,520.8333333333334
1159,509.0,520.7666666666667
1160,506.0,520.6
1161,507.0,520.3333333333334
1162,515.0,520.0
1163,518.0,519.8333333333334
1164,500.0,520.0666666666667
1165,497.0,520.3666666666667
1166,506.0,520.5333333333333
1167,514.0,520.3
1168,514.0,520.2666666666667
1169,501.0,520.2666666666667
1170,498.0,520.2
1171,505.0,520.1666666666666
1172,507.0,520.3
1173,513.0,520.3
1174,502.0,520.1
1175,498.0,520.2333333333333
1176,508.0,520.2333333333333
1177,515.0,520.0333333333333
1178,513.0,519.8
1179,493.0,519.9333333333333
1180,496.0,519.7
1181,508.0,518.9
1182,509.0,518.7666666666667
1183,513.0,518.3333333333334
1184,484.0,519.1333333333333
1185,482.0,520.0666666666667
1186,506.0,519.9
1187,533.0,520.6
1188,523.0,520.9666666666667
1189,507.0,521.0333333333333
1190,507.0,521.0
1191,505.0,521.0666666666667
1192,519.0,521.2
1193,521.0,521.3
1194,501.0,521.2666666666667
1195,495.0,521.3333333333334
1196,505.0,521.3666666666667
1197,516.0,521.4333333333333
1198,509.0,521.4666666666667
1199,486.0,521.9666666666667
1200,490.0,522.2333333333333
1201,506.0,522.2
1202,519.0,522.2666666666667
1203,508.0,522.3666666666667
1204,502.0,522.3666666666667
1205,499.0,522.3333333333334
1206,501.0,522.5666666666667
1207,512.0,522.4666666666667
1208,504.0,522.7
1209,481.0,523.1
1210,494.0,523.1666666666666
1211,508.0,523.1666666666666
1212,527.0,523.5666666666667
1213,537.0,524.3666666666667
1214,514.0,523.5
1215,508.0,522.6333333333333
1216,513.0,522.4666666666667
1217,522.0,522.1
1218,520.0,522.0
1219,503.0,522.1333333333333
1220,495.0,522.5333333333333
1221,504.0,522.5666666666667
1222,511.0,522.3666666666667
1223,508.0,522.2
1224,495.0,522.4
1225,495.0,522.4
1226,499.0,522.6
1227,513.0,522.5
1228,511.0,522.4333333333333
1229,496.0,522.1
1230,502.0,521.7
1231,504.0,521.7666666666667
1232,520.0,521.8
1233,531.0,522.3
1234,516.0,522.1
1235,515.0,521.7666666666667
1236,508.0,521.5333333333333
1237,516.0,521.6666666666666
1238,519.0,521.6333333333333
1239,501.0,520.9666666666667
1240,500.0,520.7666666666667
1241,502.0,520.9666666666667
1242,513.0,520.5
1243,508.0,519.8
1244,497.0,520.2333333333333
1245,505.0,520.3333333333334
1246,509.0,520.4
1247,512.0,520.0666666666667
1248,514.0,519.8666666666667
1249,512.0,519.5666666666667
