Action_Label,hiya_up
Fs_Hz,250
Total_Samples,1250

Sample_Index,Raw_EMG,Envelope
0,520.0,531.1333333333333
1,547.0,531.3666666666667
2,525.0,531.5
3,488.0,531.3666666666667
4,489.0,531.3333333333334
5,517.0,531.5
6,544.0,531.5333333333333
7,521.0,531.3
8,489.0,531.4
9,485.0,531.6333333333333
10,515.0,531.5333333333333
11,541.0,531.4666666666667
12,522.0,531.5333333333333
13,490.0,531.3333333333334
14,487.0,531.2
15,511.0,531.0666666666667
16,542.0,530.9666666666667
17,527.0,531.0
18,490.0,530.8333333333334
19,487.0,530.7666666666667
20,517.0,530.6333333333333
21,540.0,530.6333333333333
22,522.0,530.5666666666667
23,489.0,530.6333333333333
24,489.0,530.6333333333333
25,514.0,530.5333333333333
26,543.0,530.6
27,519.0,530.6
28,484.0,530.7333333333333
29,487.0,530.7666666666667
30,513.0,530.5333333333333
31,539.0,530.2666666666667
32,517.0,530.0
33,487.0,530.0333333333333
34,491.0,529.9666666666667
35,517.0,529.9666666666667
36,543.0,529.9333333333333
37,525.0,530.0666666666667
38,490.0,530.0333333333333
39,483.0,530.1
40,510.0,530.0666666666667
41,544.0,530.1666666666666
42,524.0,530.2333333333333
43,484.0,530.4333333333333
44,489.0,530.3666666666667
45,519.0,530.5666666666667
46,539.0,530.4666666666667
47,516.0,530.1
48,481.0,530.4
49,486.0,530.4333333333333
50,517.0,530.4333333333333
51,538.0,530.3666666666667
52,513.0,530.0666666666667
53,488.0,530.1
54,491.0,530.0333333333333
55,517.0,530.1333333333333
56,545.0,530.2
57,521.0,530.2666666666667
58,492.0,530.0
59,477.0,530.3333333333334
60,519.0,530.5333333333333
61,552.0,530.9666666666667
62,529.0,531.3666666666667
63,487.0,531.3666666666667
64,487.0,531.5
65,513.0,531.3666666666667
66,540.0,531.2666666666667
67,525.0,531.2666666666667
68,488.0,531.3333333333334
69,485.0,531.2666666666667
70,517.0,531.3666666666667
71,543.0,531.3333333333334
72,522.0,531.2666666666667
73,479.0,531.4333333333333
74,489.0,531.4333333333333
75,517.0,531.3666666666667
76,544.0,531.5333333333333
77,520.0,531.6666666666666
78,483.0,531.6
79,484.0,531.6666666666666
80,518.0,531.7
81,545.0,531.9333333333333
82,523.0,532.2666666666667
83,486.0,532.3333333333334
84,483.0,532.6
85,516.0,532.5666666666667
86,541.0,532.4333333333333
87,522.0,532.4666666666667
88,486.0,532.6666666666666
89,487.0,532.3333333333334
90,509.0,532.2
91,538.0,531.7333333333333
92,526.0,531.6333333333333
93,493.0,531.4333333333333
94,490.0,531.3333333333334
95,513.0,531.3333333333334
96,544.0,531.4666666666667
97,528.0,531.5666666666667
98,491.0,531.4666666666667
99,492.0,531.2333333333333
100,518.0,531.2666666666667
101,537.0,531.0666666666667
102,526.0,531.2
103,489.0,530.8666666666667
104,489.0,530.8666666666667
105,522.0,531.0333333333333
106,546.0,531.1
107,527.0,531.3333333333334
108,490.0,531.1
109,485.0,531.0666666666667
110,511.0,530.9
111,544.0,530.8666666666667
112,528.0,531.0333333333333
113,487.0,531.0
114,487.0,530.8666666666667
115,517.0,530.9
116,546.0,531.0666666666667
117,525.0,531.1666666666666
118,485.0,531.2
119,486.0,531.2333333333333
120,514.0,531.2
121,542.0,531.3333333333334
122,529.0,531.4333333333333
123,486.0,531.6666666666666
124,483.0,531.9
125,515.0,531.9666666666667
126,545.0,532.0
127,524.0,531.8666666666667
128,481.0,532.2
129,487.0,532.3666666666667
130,516.0,532.3
131,545.0,532.5666666666667
132,525.0,532.5333333333333
133,493.0,532.4
134,492.0,532.3
135,518.0,532.1666666666666
136,548.0,532.2333333333333
137,525.0,532.1666666666666
138,484.0,532.3666666666667
139,488.0,532.2666666666667
140,517.0,532.4
141,541.0,532.3
142,521.0,532.0666666666667
143,485.0,532.1333333333333
144,487.0,532.1333333333333
145,513.0,532.0
146,540.0,531.8
147,520.0,531.6333333333333
148,488.0,531.5333333333333
149,488.0,531.4666666666667
150,516.0,531.5333333333333
151,540.0,531.4666666666667
152,513.0,530.9333333333333
153,491.0,530.7666666666667
154,487.0,530.6333333333333
155,519.0,530.7666666666667
156,552.0,531.0
157,536.0,531.4
158,491.0,531.0666666666667
159,485.0,531.1333333333333
160,516.0,531.1333333333333
161,548.0,531.2333333333333
162,527.0,531.3
163,484.0,531.6
164,487.0,531.7666666666667
165,520.0,531.8333333333334
166,548.0,531.8333333333334
167,525.0,531.8333333333334
168,482.0,531.9
169,479.0,532.2
170,513.0,532.0666666666667
171,541.0,532.0666666666667
172,522.0,532.1
173,487.0,532.0333333333333
174,489.0,531.9666666666667
175,521.0,532.2333333333333
176,543.0,532.3333333333334
177,522.0,532.4
178,481.0,532.6333333333333
179,478.0,532.9666666666667
180,515.0,532.9333333333333
181,546.0,533.1333333333333
182,531.0,533.7333333333333
183,492.0,533.7
184,482.0,533.8666666666667
185,514.0,533.7
186,545.0,533.4666666666667
187,526.0,533.1333333333333
188,486.0,533.3
189,486.0,533.2666666666667
190,514.0,533.2
191,542.0,533.0
192,529.0,533.0666666666667
193,488.0,532.9333333333333
194,486.0,532.9666666666667
195,518.0,532.9
196,542.0,532.7
197,527.0,532.7666666666667
198,490.0,532.5
199,488.0,532.2
200,517.0,532.3333333333334
201,544.0,532.4333333333333
202,527.0,532.6
203,488.0,532.5666666666667
204,488.0,532.6
205,515.0,532.4
206,545.0,532.4666666666667
207,525.0,532.5666666666667
208,484.0,532.4666666666667
209,484.0,532.2666666666667
210,517.0,532.3333333333334
211,541.0,532.1666666666666
212,523.0,531.9
213,487.0,532.0666666666667
214,487.0,531.9
215,519.0,532.0666666666667
216,554.0,532.3666666666667
217,527.0,532.4
218,477.0,532.7
219,476.0,533.0333333333333
220,511.0,533.0
221,536.0,532.8
222,523.0,532.6
223,483.0,532.7666666666667
224,482.0,532.9
225,515.0,532.8
226,544.0,532.8666666666667
227,522.0,532.7
228,477.0,533.1333333333333
229,476.0,533.5333333333333
230,518.0,533.5666666666667
231,545.0,533.6
232,525.0,533.5333333333333
233,480.0,533.8
234,484.0,533.9333333333333
235,520.0,534.1
236,548.0,534.2
237,524.0,534.1666666666666
238,483.0,534.2
239,480.0,534.3333333333334
240,509.0,534.2666666666667
241,533.0,534.0
242,522.0,533.9666666666667
243,485.0,534.0333333333333
244,482.0,534.2
245,514.0,534.0333333333333
246,543.0,533.6666666666666
247,520.0,533.4333333333333
248,485.0,533.1666666666666
249,489.0,532.7333333333333
250,519.0,532.9333333333333
251,540.0,533.0666666666667
252,521.0,533.0
253,484.0,532.9666666666667
254,480.0,533.0333333333333
255,509.0,533.0333333333333
256,544.0,533.0333333333333
257,526.0,533.1666666666666
258,483.0,532.9666666666667
259,487.0,532.6
260,513.0,532.4333333333333
261,552.0,532.6666666666666
262,533.0,532.9333333333333
263,494.0,532.4666666666667
264,491.0,532.2333333333333
265,515.0,532.0666666666667
266,544.0,531.9333333333333
267,530.0,532.1333333333333
268,487.0,532.0
269,482.0,531.9333333333333
270,505.0,532.0666666666667
271,539.0,532.2666666666667
272,525.0,532.3666666666667
273,490.0,532.2
274,479.0,532.3
275,512.0,532.2333333333333
276,548.0,532.4
277,520.0,532.4
278,481.0,532.5333333333333
279,487.0,532.6
280,514.0,532.4333333333333
281,547.0,532.6666666666666
282,524.0,532.7666666666667
283,491.0,532.5333333333333
284,486.0,532.3333333333334
285,514.0,532.3
286,547.0,532.4
287,531.0,532.5666666666667
288,490.0,532.3333333333334
289,487.0,532.3333333333334
290,512.0,532.3
291,545.0,532.0666666666667
292,528.0,531.9
293,495.0,531.8666666666667
294,490.0,531.9
295,511.0,531.8333333333334
296,542.0,531.7666666666667
297,533.0,531.8666666666667
298,485.0,531.9333333333333
299,498.0,531.4
300,539.0,532.0666666666667
301,585.0,533.6
302,612.0,536.5
303,578.0,537.9666666666667
304,621.0,540.5
305,682.0,546.1666666666666
306,659.0,549.8666666666667
307,580.0,551.8666666666667
308,524.0,551.2333333333333
309,524.0,550.8
310,541.0,551.7
311,545.0,551.6333333333333
312,522.0,551.5666666666667
313,511.0,550.9
314,508.0,550.1666666666666
315,564.0,551.8333333333334
316,525.0,551.1
317,471.0,551.8333333333334
318,387.0,555.2666666666667
319,398.0,558.2333333333333
320,481.0,559.2666666666667
321,582.0,560.5
322,561.0,561.6
323,505.0,561.2666666666667
324,405.0,564.1
325,412.0,567.4
326,459.0,568.1666666666666
327,447.0,569.6333333333333
328,402.0,572.4
329,408.0,575.4
330,449.0,576.6
331,516.0,574.3
332,534.0,571.7
333,491.0,570.2
334,455.0,568.4666666666667
335,510.0,562.8666666666667
336,548.0,559.1666666666666
337,556.0,558.3666666666667
338,515.0,558.0666666666667
339,494.0,558.2666666666667
340,524.0,557.7
341,591.0,559.2333333333333
342,602.0,561.9
343,533.0,562.5666666666667
344,528.0,562.9666666666667
345,530.0,561.8333333333334
346,554.0,562.8
347,569.0,563.3333333333334
348,524.0,559.5666666666667
349,517.0,555.9333333333333
350,527.0,555.4
351,563.0,554.7666666666667
352,550.0,554.4
353,518.0,554.3666666666667
354,539.0,551.7
355,579.0,550.6
356,598.0,551.7
357,593.0,552.2333333333333
358,569.0,550.4666666666667
359,557.0,548.5
360,585.0,548.8333333333334
361,578.0,550.9
362,560.0,551.7666666666667
363,531.0,551.7
364,525.0,550.2333333333333
365,532.0,550.8333333333334
366,541.0,550.6
367,532.0,549.8
368,518.0,549.9
369,510.0,549.3666666666667
370,523.0,549.3333333333334
371,532.0,547.3666666666667
372,533.0,545.0666666666667
373,511.0,544.4
374,509.0,543.9666666666667
375,514.0,543.4333333333333
376,514.0,542.1
377,480.0,541.2666666666667
378,450.0,542.9333333333333
379,449.0,544.8666666666667
380,456.0,546.2333333333333
381,452.0,546.5333333333333
382,439.0,547.7
383,443.0,549.8
384,452.0,550.9
385,439.0,551.1
386,457.0,550.0666666666667
387,455.0,549.2666666666667
388,458.0,549.1666666666666
389,434.0,550.2666666666667
390,463.0,549.4666666666667
391,471.0,548.6333333333333
392,465.0,548.6
393,443.0,550.2666666666667
394,461.0,551.5333333333333
395,480.0,551.9333333333333
396,472.0,552.3
397,469.0,553.0666666666667
398,457.0,554.7
399,482.0,555.6333333333333
400,497.0,555.7666666666667
401,490.0,555.8333333333334
402,482.0,556.1333333333333
403,466.0,557.6333333333333
404,464.0,559.1333333333333
405,495.0,559.6333333333333
406,510.0,559.6333333333333
407,499.0,559.0
408,491.0,557.6333333333333
409,505.0,555.7666666666667
410,525.0,554.3333333333334
411,527.0,552.8333333333334
412,510.0,550.4666666666667
413,487.0,549.0
414,488.0,547.8
415,516.0,545.5
416,522.0,544.0
417,511.0,542.1333333333333
418,492.0,541.0
419,506.0,538.6
420,511.0,537.0
421,532.0,536.3
422,525.0,535.1666666666666
423,494.0,533.4666666666667
424,491.0,532.4666666666667
425,506.0,531.6
426,536.0,531.0666666666667
427,535.0,530.4
428,501.0,528.9333333333333
429,492.0,528.6
430,507.0,528.2666666666667
431,528.0,528.0666666666667
432,518.0,527.2666666666667
433,496.0,526.2666666666667
434,490.0,525.4
435,506.0,525.0333333333333
436,525.0,525.4
437,519.0,525.2
438,481.0,525.5333333333333
439,483.0,526.2666666666667
440,511.0,525.8666666666667
441,534.0,526.1
442,516.0,526.1666666666666
443,505.0,525.5666666666667
444,491.0,525.4666666666667
445,513.0,525.3666666666667
446,536.0,525.8333333333334
447,531.0,526.4333333333333
448,508.0,525.9
449,505.0,525.9333333333333
450,512.0,525.9
451,511.0,525.2666666666667
452,507.0,525.0
453,490.0,525.1333333333333
454,500.0,524.8333333333334
455,517.0,524.8
456,520.0,524.2666666666667
457,504.0,523.7666666666667
458,488.0,524.2
459,479.0,524.6333333333333
460,509.0,524.5666666666667
461,529.0,524.6
462,518.0,524.6
463,489.0,524.8333333333334
464,491.0,524.8
465,497.0,525.1
466,514.0,524.7333333333333
467,509.0,524.6
468,488.0,524.3666666666667
469,477.0,524.5666666666667
470,499.0,524.9666666666667
471,521.0,524.5333333333333
472,507.0,524.5666666666667
473,481.0,525.3666666666667
474,490.0,525.4
475,500.0,525.7666666666667
476,510.0,525.0333333333333
477,503.0,524.7
478,486.0,525.4333333333333
479,485.0,526.1
480,495.0,526.6666666666666
481,512.0,526.6333333333333
482,504.0,526.7333333333333
483,489.0,526.7666666666667
484,496.0,526.9
485,513.0,526.7666666666667
486,528.0,527.0333333333333
487,514.0,526.8333333333334
488,492.0,526.7
489,498.0,526.0666666666667
490,514.0,526.0333333333333
491,525.0,525.9
492,518.0,525.9
493,496.0,525.6666666666666
494,491.0,525.6666666666666
495,503.0,525.4666666666667
496,525.0,525.8333333333334
497,521.0,526.0333333333333
498,506.0,525.4333333333333
499,496.0,524.8
500,514.0,524.4333333333333
501,523.0,524.5
502,514.0,524.4
503,492.0,524.0333333333333
504,505.0,523.5333333333333
505,515.0,523.2333333333333
506,527.0,523.6666666666666
507,522.0,523.7
508,499.0,523.2666666666667
509,501.0,522.7333333333333
510,506.0,522.3666666666667
511,516.0,522.5
512,513.0,522.2666666666667
513,512.0,521.5
514,519.0,521.2
515,520.0,521.4333333333333
516,532.0,521.5666666666667
517,522.0,521.8333333333334
518,498.0,521.6333333333333
519,496.0,521.7
520,510.0,521.7
521,522.0,521.6
522,515.0,521.5
523,509.0,521.0666666666667
524,512.0,520.3666666666667
525,519.0,520.3
526,523.0,520.2333333333333
527,517.0,520.1
528,505.0,520.1333333333333
529,503.0,519.9
530,526.0,520.3
531,544.0,521.0
532,530.0,521.5333333333333
533,515.0,520.9666666666667
534,498.0,521.2
535,519.0,521.3333333333334
536,534.0,521.5666666666667
537,529.0,521.8
538,503.0,521.6666666666666
539,493.0,521.9333333333333
540,504.0,522.0
541,525.0,522.3
542,523.0,522.6333333333333
543,493.0,523.2666666666667
544,504.0,523.3
545,521.0,523.3333333333334
546,532.0,523.3333333333334
547,526.0,523.4666666666667
548,499.0,523.4333333333333
549,499.0,523.3333333333334
550,514.0,523.3333333333334
551,528.0,523.5333333333333
552,516.0,523.5666666666667
553,499.0,523.9
554,491.0,524.6
555,506.0,524.5666666666667
556,524.0,524.6
557,520.0,524.7
558,495.0,525.0333333333333
559,491.0,525.4333333333333
560,507.0,525.1333333333333
561,521.0,524.3666666666667
562,511.0,523.8
563,488.0,524.5
564,499.0,524.4666666666667
565,503.0,524.5333333333333
566,518.0,524.0
567,515.0,523.5333333333333
568,495.0,523.8
569,497.0,523.6666666666666
570,519.0,523.6333333333333
571,527.0,523.7
572,514.0,523.4
573,488.0,523.5666666666667
574,488.0,524.1
575,507.0,523.9666666666667
576,523.0,523.6666666666666
577,515.0,523.3
578,494.0,523.4666666666667
579,493.0,523.6666666666666
580,502.0,523.9333333333333
581,518.0,523.6
582,509.0,523.5666666666667
583,498.0,523.6
584,498.0,523.3666666666667
585,507.0,523.3333333333334
586,530.0,523.5333333333333
587,518.0,523.4666666666667
588,501.0,523.2666666666667
589,497.0,523.0666666666667
590,511.0,522.9333333333333
591,529.0,523.2
592,521.0,523.4666666666667
593,503.0,522.9666666666667
594,493.0,523.1666666666666
595,508.0,523.0
596,526.0,523.2666666666667
597,518.0,523.3666666666667
598,495.0,523.3666666666667
599,489.0,523.6333333333333
600,507.0,523.5666666666667
601,525.0,523.5
602,515.0,523.5333333333333
603,499.0,523.1666666666666
604,496.0,522.9
605,505.0,522.9666666666667
606,523.0,522.9666666666667
607,521.0,523.1666666666666
608,503.0,522.8666666666667
609,498.0,522.7
610,502.0,522.7
611,530.0,523.1
612,523.0,523.3666666666667
613,501.0,523.2666666666667
614,495.0,523.3666666666667
615,508.0,523.3333333333334
616,528.0,523.2666666666667
617,523.0,523.4333333333333
618,501.0,523.4333333333333
619,497.0,523.4333333333333
620,508.0,523.5333333333333
621,526.0,523.4333333333333
622,519.0,523.3666666666667
623,495.0,523.6333333333333
624,490.0,523.7333333333333
625,514.0,523.6666666666666
626,533.0,523.9
627,526.0,524.1666666666666
628,501.0,523.9666666666667
629,491.0,523.9
630,507.0,523.9
631,532.0,524.1333333333333
632,530.0,524.6333333333333
633,500.0,524.6
634,491.0,524.7666666666667
635,499.0,524.9666666666667
636,529.0,525.1666666666666
637,526.0,525.3333333333334
638,500.0,525.4333333333333
639,485.0,525.8666666666667
640,514.0,525.6
641,534.0,525.7333333333333
642,525.0,525.8
643,500.0,525.8333333333334
644,493.0,525.9
645,507.0,525.9333333333333
646,526.0,525.8666666666667
647,526.0,525.9666666666667
648,501.0,525.9666666666667
649,490.0,526.2
650,507.0,526.2333333333333
651,525.0,526.2
652,521.0,526.2666666666667
653,502.0,526.0333333333333
654,500.0,525.7
655,509.0,525.7333333333333
656,531.0,525.6666666666666
657,521.0,525.5
658,498.0,525.6
659,495.0,525.4666666666667
660,503.0,525.6
661,522.0,525.2666666666667
662,522.0,525.0
663,496.0,525.1333333333333
664,490.0,525.1666666666666
665,505.0,524.9666666666667
666,517.0,524.5666666666667
667,512.0,524.1
668,508.0,523.8333333333334
669,501.0,523.3
670,511.0,523.2666666666667
671,529.0,523.1
672,522.0,523.0
673,499.0,523.0333333333333
674,493.0,523.0333333333333
675,507.0,523.0333333333333
676,521.0,522.8666666666667
677,518.0,522.6
678,499.0,522.6666666666666
679,497.0,522.4333333333333
680,509.0,522.3666666666667
681,529.0,522.5
682,523.0,522.5666666666667
683,498.0,522.7
684,494.0,522.9
685,504.0,523.0666666666667
686,523.0,522.8
687,523.0,522.8666666666667
688,501.0,522.7666666666667
689,495.0,522.7666666666667
690,510.0,522.5333333333333
691,529.0,522.7666666666667
692,524.0,522.8333333333334
693,495.0,522.8666666666667
694,495.0,522.7
695,511.0,522.5
696,522.0,522.6666666666666
697,524.0,523.0666666666667
698,501.0,523.3
699,498.0,523.4
700,513.0,523.4
701,529.0,523.4
702,523.0,523.4333333333333
703,498.0,523.4666666666667
704,495.0,523.4
705,509.0,523.3333333333334
706,522.0,523.3666666666667
707,521.0,523.4666666666667
708,503.0,523.3333333333334
709,497.0,523.3333333333334
710,510.0,523.3
711,530.0,523.3333333333334
712,520.0,523.2333333333333
713,495.0,523.3333333333334
714,491.0,523.4333333333333
715,511.0,523.2
716,527.0,523.3333333333334
717,525.0,523.4
718,496.0,523.5666666666667
719,495.0,523.5666666666667
720,509.0,523.6
721,529.0,523.6
722,527.0,523.7
723,505.0,523.3666666666667
724,498.0,523.2666666666667
725,511.0,523.2666666666667
726,525.0,523.3666666666667
727,517.0,523.1333333333333
728,495.0,523.3333333333334
729,496.0,523.4
730,513.0,523.4
731,539.0,523.7333333333333
732,531.0,524.0
733,505.0,523.7666666666667
734,501.0,523.5666666666667
735,515.0,523.5666666666667
736,534.0,523.9666666666667
737,525.0,524.1
738,500.0,524.2
739,496.0,524.2333333333333
740,512.0,524.1666666666666
741,532.0,524.2333333333333
742,528.0,524.5
743,498.0,524.4
744,494.0,524.3
745,508.0,524.4
746,536.0,524.7
747,531.0,524.9
748,502.0,524.7
749,501.0,524.5
750,514.0,524.4666666666667
751,534.0,524.6333333333333
752,530.0,524.7333333333333
753,507.0,524.6666666666666
754,502.0,524.5333333333333
755,512.0,524.5
756,531.0,524.7
757,523.0,524.9
758,505.0,524.5666666666667
759,499.0,524.4666666666667
760,512.0,524.4333333333333
761,533.0,524.2333333333333
762,526.0,524.0666666666667
763,494.0,524.4333333333333
764,494.0,524.6666666666666
765,513.0,524.6
766,529.0,524.4333333333333
767,526.0,524.4666666666667
768,500.0,524.4666666666667
769,497.0,524.4333333333333
770,508.0,524.5666666666667
771,527.0,524.4
772,524.0,524.2666666666667
773,498.0,524.2666666666667
774,494.0,524.2666666666667
775,514.0,524.2
776,530.0,524.0
777,519.0,523.6
778,496.0,523.8
779,488.0,524.2333333333333
780,509.0,524.2666666666667
781,534.0,524.2666666666667
782,527.0,524.1666666666666
783,498.0,524.4666666666667
784,493.0,524.7666666666667
785,509.0,524.8666666666667
786,526.0,524.7
787,521.0,524.6333333333333
788,501.0,524.7666666666667
789,499.0,524.7666666666667
790,513.0,524.8
791,528.0,524.6333333333333
792,524.0,524.5666666666667
793,498.0,524.4333333333333
794,494.0,524.4333333333333
795,506.0,524.6
796,524.0,524.4333333333333
797,525.0,524.4
798,502.0,524.3333333333334
799,496.0,524.3666666666667
800,508.0,524.3666666666667
801,528.0,524.4
802,523.0,524.3666666666667
803,501.0,524.2666666666667
804,495.0,524.2333333333333
805,507.0,524.3333333333334
806,525.0,524.1666666666666
807,524.0,524.3333333333334
808,500.0,524.2
809,490.0,524.1333333333333
810,508.0,524.1666666666666
811,529.0,524.0
812,525.0,523.9333333333333
813,501.0,523.8333333333334
814,494.0,523.8
815,509.0,523.8
816,530.0,523.9333333333333
817,526.0,524.1
818,501.0,524.1
819,498.0,524.1333333333333
820,509.0,524.2
821,529.0,524.2333333333333
822,525.0,524.2666666666667
823,502.0,524.1333333333333
824,494.0,524.1333333333333
825,511.0,523.9666666666667
826,529.0,524.1333333333333
827,523.0,524.0666666666667
828,498.0,524.2
829,490.0,524.4
830,505.0,524.5
831,527.0,524.4666666666667
832,523.0,524.4666666666667
833,497.0,524.6
834,491.0,524.7333333333333
835,503.0,524.8666666666667
836,521.0,524.7333333333333
837,519.0,524.5666666666667
838,501.0,524.5333333333333
839,500.0,524.2
840,514.0,524.1333333333333
841,530.0,524.1666666666666
842,530.0,524.3333333333334
843,503.0,524.2666666666667
844,496.0,524.2
845,514.0,524.1666666666666
846,532.0,524.2333333333333
847,531.0,524.4
848,500.0,524.4333333333333
849,491.0,524.6666666666666
850,503.0,524.8666666666667
851,531.0,524.9333333333333
852,532.0,525.1666666666666
853,505.0,525.0666666666667
854,498.0,524.9333333333333
855,512.0,524.9
856,530.0,524.9333333333333
857,529.0,525.1333333333333
858,503.0,524.9666666666667
859,495.0,524.8
860,507.0,524.7333333333333
861,527.0,524.7333333333333
862,525.0,524.8
863,500.0,524.7
864,492.0,524.6666666666666
865,505.0,524.6
866,527.0,524.8
867,521.0,524.8666666666667
868,496.0,525.0333333333333
869,485.0,525.5333333333333
870,505.0,525.7
871,528.0,525.6333333333333
872,527.0,525.5333333333333
873,499.0,525.6666666666666
874,493.0,525.7666666666667
875,500.0,526.1
876,521.0,525.7333333333333
877,525.0,525.5333333333333
878,505.0,525.3666666666667
879,501.0,525.0333333333333
880,508.0,524.8666666666667
881,529.0,524.8
882,526.0,524.6
883,497.0,524.8666666666667
884,495.0,524.9666666666667
885,507.0,525.1333333333333
886,528.0,525.0666666666667
887,524.0,524.9
888,500.0,525.0
889,493.0,525.0666666666667
890,507.0,525.0666666666667
891,524.0,524.9666666666667
892,523.0,524.9
893,498.0,524.9666666666667
894,492.0,524.9666666666667
895,507.0,524.9
896,527.0,524.9
897,522.0,524.9333333333333
898,496.0,524.9333333333333
899,497.0,524.5333333333333
900,510.0,524.3666666666667
901,529.0,524.4
902,525.0,524.3333333333334
903,500.0,524.3
904,489.0,524.4333333333333
905,501.0,524.4
906,526.0,524.5666666666667
907,526.0,524.6
908,501.0,524.7333333333333
909,493.0,525.0
910,504.0,525.1333333333333
911,529.0,525.1333333333333
912,524.0,525.0666666666667
913,495.0,525.1333333333333
914,490.0,525.3
915,504.0,525.4
916,524.0,525.2666666666667
917,525.0,525.3
918,499.0,525.3333333333334
919,490.0,525.4333333333333
920,504.0,525.5333333333333
921,527.0,525.6333333333333
922,520.0,525.5333333333333
923,498.0,525.5333333333333
924,494.0,525.4666666666667
925,504.0,525.5666666666667
926,521.0,525.3666666666667
927,522.0,525.3666666666667
928,497.0,525.3333333333334
929,489.0,525.6
930,507.0,525.7
931,531.0,525.7666666666667
932,525.0,525.7666666666667
933,496.0,525.9
934,493.0,525.7666666666667
935,505.0,525.6333333333333
936,527.0,525.6666666666666
937,522.0,525.5333333333333
938,498.0,525.6333333333333
939,491.0,525.7
940,505.0,525.6666666666666
941,526.0,525.5666666666667
942,521.0,525.4666666666667
943,497.0,525.4
944,492.0,525.3333333333334
945,507.0,525.2333333333333
946,526.0,525.3
947,520.0,525.1333333333333
948,500.0,525.1
949,495.0,524.9333333333333
950,503.0,524.9666666666667
951,524.0,524.8666666666667
952,523.0,524.9666666666667
953,496.0,525.0333333333333
954,495.0,525.0
955,515.0,524.8333333333334
956,534.0,525.2666666666667
957,527.0,525.4333333333333
958,501.0,525.3
959,493.0,525.1666666666666
960,504.0,525.2666666666667
961,532.0,525.3
962,529.0,525.4333333333333
963,499.0,525.3333333333334
964,495.0,525.2666666666667
965,507.0,525.2
966,527.0,525.2
967,524.0,525.2666666666667
968,499.0,525.2333333333333
969,493.0,525.1666666666666
970,509.0,525.0333333333333
971,527.0,525.0666666666667
972,519.0,525.0
973,497.0,525.0
974,496.0,524.8666666666667
975,508.0,524.8333333333334
976,528.0,524.9
977,517.0,524.8
978,495.0,524.9666666666667
979,502.0,524.7333333333333
980,513.0,524.4666666666667
981,535.0,524.8333333333334
982,527.0,524.9666666666667
983,503.0,524.7333333333333
984,498.0,524.6333333333333
985,509.0,524.6333333333333
986,525.0,524.3333333333334
987,525.0,524.2666666666667
988,503.0,524.2
989,498.0,524.0333333333333
990,511.0,523.8
991,529.0,523.7
992,528.0,523.6666666666666
993,506.0,523.4333333333333
994,494.0,523.4666666666667
995,509.0,523.4
996,529.0,523.4666666666667
997,521.0,523.3666666666667
998,505.0,523.1666666666666
999,502.0,522.8666666666667
1000,511.0,522.8
1001,530.0,522.9
1002,527.0,523.1666666666666
1003,499.0,523.1
1004,496.0,523.1
1005,514.0,523.0333333333333
1006,533.0,523.2
1007,531.0,523.6666666666666
1008,503.0,523.4
1009,497.0,523.5666666666667
1010,508.0,523.6666666666666
1011,530.0,523.5
1012,530.0,523.6
1013,507.0,523.4666666666667
1014,498.0,523.4666666666667
1015,509.0,523.4666666666667
1016,530.0,523.6333333333333
1017,527.0,523.7
1018,500.0,523.8
1019,502.0,523.6666666666666
1020,512.0,523.6333333333333
1021,530.0,523.6666666666666
1022,525.0,523.5666666666667
1023,505.0,523.6
1024,497.0,523.5
1025,510.0,523.4666666666667
1026,527.0,523.4
1027,523.0,523.4666666666667
1028,500.0,523.6333333333333
1029,493.0,523.9333333333333
1030,509.0,524.0
1031,523.0,523.7666666666667
1032,523.0,523.6333333333333
1033,498.0,523.6666666666666
1034,493.0,523.7666666666667
1035,504.0,523.9666666666667
1036,525.0,523.7
1037,521.0,523.3666666666667
1038,500.0,523.4666666666667
1039,495.0,523.5333333333333
1040,504.0,523.6666666666666
1041,527.0,523.5666666666667
1042,523.0,523.3333333333334
1043,499.0,523.6
1044,494.0,523.7333333333333
1045,508.0,523.7666666666667
1046,527.0,523.6666666666666
1047,523.0,523.5333333333333
1048,498.0,523.6
1049,494.0,523.8666666666667
1050,504.0,524.1333333333333
1051,524.0,523.9333333333333
1052,528.0,524.0333333333333
1053,503.0,524.1
1054,498.0,524.0666666666667
1055,507.0,524.1666666666666
1056,527.0,524.1666666666666
1057,526.0,524.2666666666667
1058,497.0,524.3666666666667
1059,495.0,524.3
1060,507.0,524.3666666666667
1061,525.0,524.4333333333333
1062,526.0,524.5333333333333
1063,500.0,524.4666666666667
1064,493.0,524.4666666666667
1065,504.0,524.4666666666667
1066,524.0,524.4333333333333
1067,534.0,524.8666666666667
1068,503.0,524.7666666666667
1069,498.0,524.6666666666666
1070,509.0,524.5
1071,526.0,524.4666666666667
1072,523.0,524.4666666666667
1073,502.0,524.3666666666667
1074,498.0,524.2333333333333
1075,510.0,524.1666666666666
1076,528.0,524.2
1077,524.0,524.2333333333333
1078,497.0,524.2666666666667
1079,496.0,524.2
1080,507.0,524.1
1081,529.0,524.2666666666667
1082,524.0,524.1333333333333
1083,499.0,524.2666666666667
1084,495.0,524.3666666666667
1085,511.0,524.2333333333333
1086,530.0,524.3333333333334
1087,525.0,524.3
1088,499.0,524.2333333333333
1089,493.0,524.3
1090,508.0,524.2666666666667
1091,527.0,524.3333333333334
1092,523.0,524.2333333333333
1093,501.0,524.2
1094,496.0,524.1
1095,508.0,523.9666666666667
1096,522.0,523.9
1097,520.0,523.4333333333333
1098,501.0,523.5
1099,494.0,523.6333333333333
1100,507.0,523.7
1101,525.0,523.6666666666666
1102,518.0,523.5
1103,497.0,523.6666666666666
1104,494.0,523.8
1105,508.0,523.8666666666667
1106,531.0,523.9666666666667
1107,528.0,524.1
1108,503.0,523.9
1109,494.0,523.9666666666667
1110,505.0,524.0333333333333
1111,525.0,523.9
1112,522.0,523.8333333333334
1113,498.0,523.8666666666667
1114,492.0,523.9666666666667
1115,506.0,524.1333333333333
1116,528.0,524.0666666666667
1117,528.0,524.1666666666666
1118,498.0,524.2
1119,490.0,524.3
1120,506.0,524.3666666666667
1121,523.0,524.2333333333333
1122,528.0,524.4
1123,501.0,524.4
1124,491.0,524.5666666666667
1125,510.0,524.5
1126,528.0,524.7
1127,521.0,524.7333333333333
1128,495.0,524.9333333333333
1129,491.0,525.0333333333333
1130,505.0,525.1
1131,526.0,525.1333333333333
1132,520.0,525.2
1133,498.0,525.1666666666666
1134,495.0,525.1333333333333
1135,506.0,525.2
1136,529.0,525.1333333333333
1137,523.0,524.9666666666667
1138,495.0,525.2333333333333
1139,491.0,525.3333333333334
1140,504.0,525.3666666666667
1141,522.0,525.2666666666667
1142,523.0,525.3
1143,500.0,525.2333333333333
1144,498.0,525.0333333333333
1145,507.0,525.0
1146,526.0,524.9333333333333
1147,528.0,524.9333333333333
1148,502.0,524.8
1149,491.0,524.7666666666667
1150,510.0,524.6333333333333
1151,536.0,525.0666666666667
1152,535.0,525.3
1153,503.0,525.2333333333333
1154,489.0,525.3
1155,505.0,525.4666666666667
1156,531.0,525.5666666666667
1157,530.0,525.8666666666667
1158,505.0,525.5333333333333
1159,494.0,525.4333333333333
1160,507.0,525.3666666666667
1161,532.0,525.5666666666667
1162,526.0,525.7666666666667
1163,500.0,525.7
1164,496.0,525.6666666666666
1165,509.0,525.5666666666667
1166,531.0,525.6333333333333
1167,524.0,525.6666666666666
1168,504.0,525.3666666666667
1169,498.0,525.1333333333333
1170,509.0,524.9666666666667
1171,526.0,525.1
1172,522.0,525.0666666666667
1173,495.0,525.2333333333333
1174,490.0,525.5
1175,507.0,525.5
1176,529.0,525.6
1177,528.0,525.6
1178,504.0,525.5333333333333
1179,494.0,525.4333333333333
1180,507.0,525.5333333333333
1181,528.0,525.2666666666667
1182,528.0,525.0333333333333
1183,503.0,525.0333333333333
1184,495.0,524.8333333333334
1185,509.0,524.7
1186,530.0,524.6666666666666
1187,527.0,524.5666666666667
1188,501.0,524.7
1189,495.0,524.6666666666666
1190,508.0,524.6333333333333
1191,528.0,524.5
1192,526.0,524.5
1193,496.0,524.6333333333333
1194,494.0,524.7
1195,508.0,524.7333333333333
1196,527.0,524.6
1197,524.0,524.6
1198,498.0,524.8
1199,492.0,525.0
1200,504.0,525.1666666666666
1201,528.0,525.2333333333333
1202,523.0,525.2666666666667
1203,501.0,525.0666666666667
1204,491.0,525.0333333333333
1205,507.0,525.0333333333333
1206,531.0,525.1
1207,526.0,525.0333333333333
1208,504.0,525.0333333333333
1209,496.0,524.9666666666667
1210,506.0,525.0
1211,525.0,524.9
1212,521.0,524.6666666666666
1213,495.0,524.9333333333333
1214,491.0,525.0666666666667
1215,507.0,525.1333333333333
1216,530.0,525.1333333333333
1217,521.0,524.9333333333333
1218,499.0,525.0
1219,498.0,524.9
1220,507.0,524.9333333333333
1221,529.0,524.9666666666667
1222,531.0,525.1333333333333
1223,501.0,524.9666666666667
1224,495.0,524.9333333333333
1225,508.0,524.9333333333333
1226,529.0,525.0
1227,524.0,525.0
1228,501.0,524.9
1229,494.0,524.8333333333334
1230,506.0,524.7666666666667
1231,523.0,524.6
1232,525.0,524.6666666666666
1233,502.0,524.6333333333333
1234,496.0,524.4666666666667
1235,508.0,524.4333333333333
1236,528.0,524.3333333333334
1237,523.0,524.2333333333333
1238,500.0,524.3666666666667
1239,495.0,524.4
1240,512.0,524.2
1241,531.0,524.4
1242,528.0,524.6333333333333
1243,500.0,524.4666666666667
1244,491.0,524.4666666666667
1245,505.0,524.5333333333333
1246,523.0,524.3
1247,520.0,524.2666666666667
1248,503.0,524.1333333333333
1249,497.0,524.1666666666666
