Action_Label,hiya_up
Fs_Hz,250
Total_Samples,1250

Sample_Index,Raw_EMG,Envelope
0,522.0,530.4333333333333
1,492.0,530.3666666666667
2,490.0,530.2666666666667
3,516.0,530.3333333333334
4,539.0,530.2
5,521.0,529.9666666666667
6,489.0,529.9666666666667
7,492.0,530.1666666666666
8,516.0,529.9
9,541.0,529.7333333333333
10,527.0,529.7
11,490.0,529.8333333333334
12,484.0,529.9333333333333
13,509.0,529.8666666666667
14,535.0,529.6333333333333
15,520.0,529.5
16,486.0,529.7333333333333
17,483.0,529.9333333333333
18,512.0,529.8666666666667
19,538.0,529.8333333333334
20,515.0,529.8333333333334
21,489.0,529.8
22,494.0,529.8333333333334
23,514.0,529.6
24,538.0,529.4
25,524.0,529.3333333333334
26,491.0,529.2
27,489.0,529.1333333333333
28,515.0,529.0333333333333
29,538.0,528.8333333333334
30,519.0,528.7333333333333
31,485.0,528.9666666666667
32,485.0,529.1333333333333
33,513.0,529.0333333333333
34,539.0,529.0333333333333
35,523.0,529.1
36,490.0,529.0666666666667
37,485.0,529.3
38,514.0,529.2333333333333
39,539.0,529.1666666666666
40,521.0,528.9666666666667
41,492.0,528.9
42,489.0,528.7333333333333
43,515.0,528.7333333333333
44,535.0,528.7333333333333
45,523.0,528.8333333333334
46,489.0,528.7333333333333
47,486.0,528.6333333333333
48,514.0,528.7
49,538.0,528.7
50,524.0,529.0
51,489.0,529.0
52,486.0,529.2666666666667
53,509.0,529.3
54,533.0,529.1333333333333
55,527.0,529.2333333333333
56,484.0,529.4666666666667
57,487.0,529.5333333333333
58,514.0,529.5
59,540.0,529.5666666666667
60,524.0,529.7333333333333
61,485.0,529.7333333333333
62,484.0,529.7666666666667
63,513.0,529.7666666666667
64,543.0,529.9
65,526.0,530.0
66,492.0,529.9333333333333
67,486.0,529.9
68,510.0,529.9
69,535.0,529.7666666666667
70,517.0,529.6333333333333
71,482.0,529.9666666666667
72,485.0,530.1
73,513.0,530.0333333333333
74,543.0,530.3
75,530.0,530.5333333333333
76,491.0,530.4666666666667
77,489.0,530.3666666666667
78,510.0,530.3666666666667
79,542.0,530.5
80,528.0,530.6333333333333
81,497.0,530.3666666666667
82,494.0,530.1
83,515.0,530.1
84,541.0,530.3666666666667
85,526.0,530.3333333333334
86,489.0,530.1666666666666
87,486.0,530.2
88,511.0,530.1666666666666
89,532.0,529.9
90,523.0,529.8666666666667
91,490.0,529.7
92,488.0,529.5666666666667
93,516.0,529.6666666666666
94,541.0,529.6
95,526.0,529.6
96,488.0,529.7333333333333
97,482.0,529.8666666666667
98,505.0,530.0333333333333
99,539.0,530.1666666666666
100,527.0,530.5
101,491.0,530.2
102,489.0,530.0666666666667
103,509.0,530.1333333333333
104,540.0,530.0333333333333
105,524.0,529.8333333333334
106,489.0,529.9
107,482.0,530.1333333333333
108,506.0,530.2666666666667
109,541.0,530.2333333333333
110,523.0,530.0666666666667
111,489.0,530.3333333333334
112,486.0,530.6
113,512.0,530.5
114,539.0,530.4333333333333
115,524.0,530.3666666666667
116,489.0,530.3666666666667
117,477.0,530.6666666666666
118,506.0,530.8333333333334
119,540.0,531.1
120,523.0,531.1
121,486.0,531.2333333333333
122,479.0,531.5333333333333
123,512.0,531.4
124,540.0,531.3666666666667
125,524.0,531.3
126,487.0,531.3333333333334
127,484.0,531.2666666666667
128,513.0,531.0666666666667
129,539.0,531.0666666666667
130,522.0,530.9
131,490.0,530.9333333333333
132,486.0,531.0333333333333
133,512.0,530.9333333333333
134,536.0,530.8
135,523.0,530.7666666666667
136,491.0,530.7
137,489.0,530.4666666666667
138,512.0,530.2666666666667
139,538.0,530.1666666666666
140,524.0,530.2
141,487.0,530.2666666666667
142,483.0,530.3666666666667
143,510.0,530.4333333333333
144,537.0,530.3666666666667
145,524.0,530.3666666666667
146,485.0,530.5
147,479.0,530.4333333333333
148,513.0,530.2666666666667
149,541.0,530.3
150,527.0,530.4333333333333
151,489.0,530.3333333333334
152,490.0,529.9666666666667
153,514.0,530.0333333333333
154,533.0,529.8
155,523.0,529.7666666666667
156,493.0,529.5666666666667
157,489.0,529.4
158,515.0,529.4666666666667
159,543.0,529.6
160,529.0,529.8333333333334
161,492.0,529.7666666666667
162,493.0,529.5333333333333
163,518.0,529.7333333333333
164,544.0,530.0
165,529.0,530.2
166,492.0,530.1666666666666
167,488.0,530.2
168,513.0,530.2333333333333
169,540.0,530.3
170,526.0,530.3666666666667
171,493.0,530.1666666666666
172,487.0,530.0333333333333
173,509.0,530.0666666666667
174,544.0,530.3
175,528.0,530.4333333333333
176,491.0,530.2333333333333
177,487.0,529.9666666666667
178,518.0,530.1333333333333
179,543.0,530.2
180,531.0,530.3333333333334
181,496.0,530.1
182,488.0,530.1666666666666
183,515.0,530.2
184,540.0,530.4333333333333
185,528.0,530.6
186,492.0,530.6333333333333
187,481.0,530.9
188,512.0,530.8
189,542.0,530.7666666666667
190,527.0,530.7
191,488.0,530.8333333333334
192,484.0,531.1333333333333
193,513.0,530.9666666666667
194,537.0,530.7333333333333
195,523.0,530.5333333333333
196,488.0,530.6666666666666
197,486.0,530.7333333333333
198,512.0,530.7
199,540.0,530.7
200,529.0,530.8
201,490.0,530.9
202,487.0,530.9
203,515.0,530.9
204,544.0,530.9
205,526.0,530.8333333333334
206,490.0,530.8666666666667
207,488.0,530.8333333333334
208,516.0,530.7666666666667
209,541.0,530.7
210,527.0,530.5666666666667
211,490.0,530.7666666666667
212,483.0,530.9333333333333
213,511.0,530.8666666666667
214,541.0,530.9
215,524.0,530.7666666666667
216,495.0,530.6666666666666
217,488.0,530.4333333333333
218,514.0,530.5
219,537.0,530.3333333333334
220,528.0,530.3666666666667
221,491.0,530.2666666666667
222,485.0,530.2333333333333
223,510.0,530.2666666666667
224,542.0,530.4333333333333
225,531.0,530.7
226,494.0,530.5
227,487.0,530.4666666666667
228,515.0,530.5666666666667
229,540.0,530.5666666666667
230,525.0,530.4333333333333
231,486.0,530.5666666666667
232,483.0,530.7
233,513.0,530.6333333333333
234,542.0,530.5666666666667
235,527.0,530.6
236,488.0,530.6666666666666
237,485.0,530.7666666666667
238,510.0,530.7
239,536.0,530.5333333333333
240,531.0,530.6666666666666
241,497.0,530.4333333333333
242,490.0,530.2
243,512.0,530.1666666666666
244,543.0,530.2333333333333
245,528.0,530.3666666666667
246,490.0,530.5333333333333
247,481.0,530.7666666666667
248,509.0,530.8
249,540.0,530.9
250,529.0,530.9333333333333
251,492.0,530.9
252,485.0,530.9
253,510.0,530.9
254,537.0,530.7333333333333
255,520.0,530.3666666666667
256,488.0,530.5666666666667
257,478.0,530.8666666666667
258,507.0,530.9333333333333
259,538.0,530.8666666666667
260,526.0,530.9
261,494.0,530.6333333333333
262,487.0,530.5
263,512.0,530.4666666666667
264,537.0,530.3
265,524.0,530.2
266,487.0,530.2333333333333
267,486.0,530.2
268,508.0,530.2666666666667
269,538.0,530.3333333333334
270,523.0,530.0666666666667
271,491.0,530.2666666666667
272,486.0,530.4
273,511.0,530.4333333333333
274,542.0,530.4
275,525.0,530.3
276,481.0,530.6
277,480.0,530.6333333333333
278,510.0,530.6
279,537.0,530.5
280,526.0,530.4
281,496.0,530.2666666666667
282,485.0,530.2666666666667
283,510.0,530.2666666666667
284,540.0,530.3666666666667
285,528.0,530.6333333333333
286,489.0,530.6
287,484.0,530.4
288,512.0,530.2333333333333
289,541.0,530.3333333333334
290,525.0,530.3
291,486.0,530.5666666666667
292,484.0,530.6666666666666
293,509.0,530.7666666666667
294,536.0,530.7333333333333
295,523.0,530.7
296,491.0,530.5666666666667
297,484.0,530.6333333333333
298,504.0,530.7666666666667
299,538.0,530.7666666666667
300,525.0,530.8333333333334
301,489.0,530.9
302,487.0,530.8666666666667
303,508.0,530.9666666666667
304,541.0,530.9333333333333
305,525.0,530.9333333333333
306,489.0,530.6666666666666
307,487.0,530.4333333333333
308,513.0,530.4
309,544.0,530.6333333333333
310,528.0,530.7
311,495.0,530.7333333333333
312,487.0,530.6666666666666
313,512.0,530.6
314,536.0,530.4666666666667
315,525.0,530.3666666666667
316,491.0,530.3
317,489.0,530.1333333333333
318,519.0,530.3666666666667
319,545.0,530.5
320,533.0,530.7666666666667
321,499.0,530.3333333333334
322,493.0,530.0333333333333
323,520.0,530.2
324,554.0,530.8
325,538.0,531.3
326,521.0,530.9
327,519.0,530.2
328,550.0,531.2
329,595.0,533.1
330,630.0,536.6
331,574.0,537.9
332,559.0,538.6333333333333
333,584.0,540.9
334,604.0,543.0
335,533.0,543.2666666666667
336,491.0,543.2
337,490.0,543.1
338,545.0,544.1666666666666
339,579.0,545.3333333333334
340,542.0,545.8
341,510.0,545.3
342,511.0,544.5
343,534.0,545.2333333333333
344,525.0,544.8666666666667
345,535.0,545.2
346,548.0,545.7
347,514.0,545.0
348,527.0,545.2666666666667
349,585.0,546.6
350,551.0,547.2
351,498.0,547.2333333333333
352,436.0,549.1333333333333
353,399.0,552.6333333333333
354,449.0,553.3333333333334
355,473.0,553.7666666666667
356,430.0,556.2
357,429.0,558.7333333333333
358,465.0,559.0333333333333
359,508.0,556.4
360,511.0,552.5
361,499.0,550.8666666666667
362,536.0,550.1
363,560.0,549.3
364,589.0,548.8
365,549.0,549.3333333333334
366,513.0,548.6666666666666
367,520.0,548.2
368,531.0,547.7333333333333
369,536.0,546.3
370,517.0,545.4666666666667
371,483.0,546.3666666666667
372,476.0,547.5333333333333
373,499.0,547.2333333333333
374,515.0,546.9
375,547.0,547.3
376,532.0,546.7666666666667
377,511.0,546.7333333333333
378,553.0,547.6
379,656.0,549.9666666666667
380,672.0,554.0
381,602.0,556.5333333333333
382,584.0,556.4
383,604.0,555.7
384,617.0,557.1
385,625.0,559.5666666666667
386,586.0,559.3
387,564.0,558.2666666666667
388,596.0,559.5
389,610.0,562.6333333333333
390,566.0,564.4
391,527.0,564.4666666666667
392,516.0,563.8
393,515.0,562.3
394,530.0,560.3333333333334
395,547.0,560.2666666666667
396,506.0,560.4333333333333
397,501.0,560.5333333333333
398,517.0,560.0666666666667
399,548.0,560.4666666666667
400,542.0,561.3
401,503.0,560.6333333333333
402,486.0,560.3
403,489.0,560.6333333333333
404,477.0,561.7
405,456.0,562.4
406,456.0,563.6
407,444.0,565.8333333333334
408,446.0,566.6666666666666
409,472.0,563.2
410,472.0,559.2
411,424.0,559.1333333333333
412,450.0,558.8
413,481.0,556.7666666666667
414,495.0,553.8333333333334
415,497.0,550.5666666666667
416,477.0,549.2666666666667
417,470.0,548.9333333333333
418,476.0,547.3333333333334
419,486.0,544.9333333333333
420,468.0,544.6
421,447.0,546.2666666666667
422,454.0,548.0666666666667
423,471.0,549.3333333333334
424,469.0,550.1666666666666
425,473.0,550.3
426,463.0,551.7333333333333
427,458.0,553.1666666666666
428,466.0,554.5333333333333
429,487.0,554.1666666666666
430,499.0,553.6
431,480.0,554.3666666666667
432,465.0,555.0666666666667
433,485.0,555.2
434,503.0,554.3333333333334
435,478.0,553.6
436,463.0,553.3666666666667
437,467.0,552.6
438,480.0,551.4666666666667
439,501.0,550.5
440,509.0,549.2666666666667
441,486.0,547.2
442,467.0,546.6333333333333
443,474.0,546.8666666666667
444,500.0,546.7
445,491.0,546.9
446,493.0,546.3666666666667
447,485.0,545.8666666666667
448,499.0,545.1
449,516.0,544.3666666666667
450,512.0,542.9
451,483.0,541.7
452,472.0,541.1
453,496.0,540.2666666666667
454,524.0,539.2333333333333
455,522.0,538.2666666666667
456,486.0,537.5
457,478.0,536.8333333333334
458,498.0,535.7666666666667
459,531.0,535.5666666666667
460,530.0,535.7333333333333
461,489.0,535.4333333333333
462,485.0,534.7666666666667
463,505.0,534.1
464,517.0,533.9666666666667
465,497.0,533.3333333333334
466,494.0,532.3
467,496.0,531.3333333333334
468,507.0,530.4333333333333
469,518.0,530.2666666666667
470,503.0,530.4666666666667
471,486.0,530.4666666666667
472,491.0,529.6666666666666
473,490.0,529.1333333333333
474,503.0,529.0333333333333
475,506.0,528.5333333333333
476,493.0,528.5333333333333
477,490.0,528.3666666666667
478,498.0,528.4
479,515.0,528.3666666666667
480,507.0,528.5333333333333
481,492.0,528.2333333333333
482,483.0,527.8666666666667
483,488.0,528.1333333333333
484,510.0,527.8
485,507.0,527.6333333333333
486,482.0,527.7666666666667
487,478.0,527.7666666666667
488,475.0,528.5333333333333
489,486.0,528.7666666666667
490,497.0,528.6666666666666
491,491.0,528.6
492,489.0,528.4666666666667
493,493.0,528.8666666666667
494,524.0,529.1
495,522.0,528.9333333333333
496,492.0,529.0
497,487.0,529.3
498,507.0,529.3
499,518.0,529.3
500,508.0,529.1333333333333
501,486.0,529.1333333333333
502,484.0,529.3666666666667
503,488.0,529.4333333333333
504,505.0,529.3666666666667
505,511.0,529.2
506,495.0,529.1333333333333
507,475.0,529.6333333333333
508,492.0,529.8333333333334
509,507.0,529.9
510,515.0,529.8333333333334
511,499.0,529.6
512,488.0,529.4333333333333
513,509.0,528.7333333333333
514,529.0,529.2333333333333
515,521.0,529.3666666666667
516,486.0,529.2333333333333
517,480.0,529.1666666666666
518,502.0,528.2666666666667
519,523.0,527.7666666666667
520,518.0,527.4666666666667
521,491.0,527.4666666666667
522,489.0,527.4666666666667
523,505.0,527.0666666666667
524,525.0,527.1
525,528.0,527.3
526,503.0,526.9333333333333
527,487.0,526.9333333333333
528,506.0,526.9666666666667
529,531.0,527.4
530,530.0,527.8666666666667
531,500.0,527.4
532,487.0,527.3
533,500.0,526.9
534,516.0,526.8
535,515.0,526.8666666666667
536,493.0,526.9333333333333
537,492.0,526.3666666666667
538,503.0,526.0
539,526.0,526.3
540,522.0,526.5333333333333
541,502.0,526.4333333333333
542,490.0,526.3666666666667
543,498.0,526.7333333333333
544,523.0,526.5333333333333
545,521.0,526.5333333333333
546,487.0,526.5
547,483.0,526.4
548,500.0,526.4666666666667
549,524.0,526.5
550,526.0,526.7666666666667
551,503.0,526.3666666666667
552,494.0,526.2
553,514.0,526.0333333333333
554,533.0,526.3
555,531.0,526.4
556,499.0,526.5333333333333
557,488.0,526.5
558,505.0,526.5333333333333
559,535.0,526.6666666666666
560,536.0,526.8666666666667
561,502.0,526.8
562,494.0,526.5666666666667
563,505.0,526.4
564,526.0,526.7333333333333
565,522.0,526.9666666666667
566,496.0,526.8666666666667
567,488.0,527.0
568,507.0,526.8666666666667
569,528.0,526.9333333333333
570,525.0,527.0333333333333
571,493.0,527.3333333333334
572,480.0,527.6666666666666
573,502.0,527.5333333333333
574,529.0,527.7333333333333
575,526.0,527.9
576,497.0,527.5666666666667
577,484.0,527.5333333333333
578,507.0,527.3
579,535.0,527.6666666666666
580,532.0,527.8666666666667
581,495.0,528.1333333333333
582,488.0,528.3333333333334
583,501.0,528.6333333333333
584,530.0,528.5333333333333
585,527.0,528.4
586,498.0,528.4333333333333
587,491.0,528.3333333333334
588,500.0,528.5
589,527.0,528.2333333333333
590,526.0,527.9
591,494.0,528.1666666666666
592,482.0,528.5666666666667
593,505.0,528.5666666666667
594,531.0,528.7333333333333
595,524.0,528.8
596,494.0,528.8666666666667
597,488.0,528.8666666666667
598,503.0,529.0
599,527.0,528.9666666666667
600,521.0,528.8333333333334
601,496.0,528.7333333333333
602,485.0,528.5666666666667
603,497.0,528.7333333333333
604,530.0,528.7666666666667
605,526.0,528.7666666666667
606,495.0,528.8333333333334
607,486.0,528.7666666666667
608,503.0,528.9
609,524.0,528.5333333333333
610,528.0,528.4
611,500.0,528.2333333333333
612,490.0,528.1666666666666
613,509.0,527.9
614,536.0,528.1
615,530.0,528.2
616,501.0,528.1
617,495.0,527.9666666666667
618,508.0,527.7
619,533.0,527.9
620,530.0,528.0333333333333
621,498.0,527.9
622,488.0,527.7
623,500.0,527.8666666666667
624,526.0,527.7
625,523.0,527.6666666666666
626,496.0,527.6
627,480.0,527.8666666666667
628,494.0,528.1666666666666
629,528.0,528.2
630,525.0,528.3333333333334
631,499.0,528.2333333333333
632,494.0,527.9333333333333
633,514.0,527.5
634,545.0,528.0
635,538.0,528.4
636,503.0,528.1333333333333
637,507.0,527.4333333333333
638,525.0,527.5666666666667
639,542.0,528.1666666666666
640,538.0,528.5
641,504.0,528.3666666666667
642,494.0,528.2333333333333
643,505.0,528.3666666666667
644,532.0,528.2333333333333
645,537.0,528.4666666666667
646,512.0,528.1
647,507.0,527.7
648,517.0,527.7333333333333
649,530.0,527.6333333333333
650,532.0,527.7
651,504.0,527.5
652,491.0,527.4
653,506.0,527.2
654,531.0,527.3666666666667
655,530.0,527.6
656,496.0,527.6
657,482.0,527.5333333333333
658,496.0,527.4666666666667
659,524.0,527.3333333333334
660,524.0,527.3
661,503.0,527.1666666666666
662,487.0,527.4
663,502.0,527.6666666666666
664,531.0,527.2
665,534.0,527.0666666666667
666,510.0,526.8333333333334
667,497.0,527.1666666666666
668,513.0,526.7666666666667
669,540.0,526.7
670,535.0,526.6
671,501.0,526.7
672,491.0,526.8
673,506.0,526.7666666666667
674,531.0,526.7333333333333
675,525.0,526.3333333333334
676,498.0,526.8
677,491.0,527.3333333333334
678,505.0,527.4
679,527.0,527.3
680,533.0,527.3333333333334
681,509.0,527.1666666666666
682,496.0,527.0
683,503.0,527.1
684,527.0,526.9666666666667
685,528.0,526.9
686,502.0,526.7
687,487.0,526.5333333333333
688,499.0,526.4333333333333
689,528.0,526.5666666666667
690,531.0,526.8
691,501.0,526.8666666666667
692,493.0,526.6666666666666
693,502.0,526.6666666666666
694,526.0,526.5
695,528.0,526.3
696,498.0,526.7
697,487.0,527.0333333333333
698,500.0,527.4
699,526.0,526.9333333333333
700,527.0,526.6666666666666
701,499.0,526.7333333333333
702,481.0,527.0666666666667
703,500.0,527.2666666666667
704,532.0,527.3
705,530.0,527.4666666666667
706,504.0,527.2666666666667
707,487.0,527.4
708,498.0,527.6333333333333
709,519.0,527.3666666666667
710,525.0,527.1
711,503.0,527.3
712,495.0,527.3333333333334
713,509.0,527.1333333333333
714,541.0,527.6
715,533.0,527.7666666666667
716,504.0,527.7
717,492.0,527.5333333333333
718,510.0,527.1666666666666
719,540.0,527.5666666666667
720,535.0,527.7
721,502.0,527.6666666666666
722,485.0,527.9333333333333
723,500.0,528.0
724,529.0,528.1
725,531.0,528.2
726,498.0,528.2
727,494.0,527.9666666666667
728,513.0,527.6
729,534.0,527.8666666666667
730,535.0,528.1333333333333
731,501.0,528.0666666666667
732,492.0,527.7
733,511.0,527.3333333333334
734,538.0,527.5333333333333
735,534.0,527.6666666666666
736,505.0,527.6333333333333
737,487.0,527.6333333333333
738,489.0,527.9333333333333
739,526.0,528.1666666666666
740,540.0,528.6666666666666
741,506.0,528.5666666666667
742,494.0,528.6
743,507.0,528.6666666666666
744,534.0,528.4333333333333
745,533.0,528.4333333333333
746,500.0,528.5666666666667
747,489.0,528.6666666666666
748,503.0,528.9
749,529.0,528.5333333333333
750,531.0,528.4
751,502.0,528.4
752,487.0,528.3333333333334
753,501.0,528.3
754,513.0,527.7666666666667
755,515.0,527.2333333333333
756,481.0,527.8
757,495.0,527.7666666666667
758,522.0,528.0666666666667
759,549.0,528.5666666666667
760,546.0,528.9333333333333
761,513.0,528.6
762,497.0,528.4333333333333
763,507.0,528.5666666666667
764,530.0,528.3
765,532.0,528.2333333333333
766,512.0,528.0
767,497.0,527.6666666666666
768,509.0,527.0
769,540.0,527.4666666666667
770,532.0,527.2
771,496.0,527.5333333333333
772,490.0,527.6666666666666
773,500.0,527.9
774,530.0,527.7666666666667
775,535.0,527.8333333333334
776,504.0,527.7
777,488.0,527.7333333333333
778,499.0,527.8666666666667
779,523.0,527.6666666666666
780,528.0,527.5666666666667
781,500.0,527.6333333333333
782,493.0,527.4333333333333
783,507.0,527.2333333333333
784,527.0,527.7
785,526.0,528.0666666666667
786,503.0,527.3333333333334
787,496.0,527.3
788,507.0,527.1333333333333
789,533.0,526.6
790,538.0,526.3333333333334
791,498.0,526.7666666666667
792,487.0,527.1
793,503.0,527.2333333333333
794,531.0,527.2666666666667
795,526.0,527.0666666666667
796,503.0,527.3666666666667
797,490.0,527.6
798,506.0,527.7
799,531.0,527.4
800,531.0,527.3666666666667
801,503.0,527.1333333333333
802,494.0,527.0
803,505.0,526.8333333333334
804,522.0,526.5666666666667
805,523.0,526.1666666666666
806,502.0,526.2333333333333
807,493.0,526.0666666666667
808,505.0,525.8666666666667
809,532.0,526.1666666666666
810,537.0,526.4666666666667
811,506.0,526.2666666666667
812,494.0,526.2333333333333
813,505.0,526.3
814,532.0,526.4666666666667
815,531.0,526.6333333333333
816,505.0,526.5666666666667
817,491.0,526.7333333333333
818,505.0,526.8
819,530.0,526.7
820,533.0,526.5333333333333
821,503.0,526.3666666666667
822,486.0,526.4
823,501.0,526.4666666666667
824,526.0,526.3
825,528.0,526.3666666666667
826,503.0,526.3666666666667
827,495.0,526.2
828,504.0,526.2666666666667
829,525.0,526.0666666666667
830,527.0,525.9333333333333
831,497.0,526.1333333333333
832,482.0,526.5333333333333
833,503.0,526.6
834,538.0,527.1333333333333
835,536.0,527.5666666666667
836,505.0,527.4666666666667
837,494.0,527.4333333333333
838,509.0,527.3
839,532.0,527.3
840,532.0,527.1333333333333
841,506.0,527.1333333333333
842,489.0,527.3
843,498.0,527.5333333333333
844,518.0,527.0666666666667
845,525.0,526.8666666666667
846,503.0,526.9333333333333
847,499.0,526.6666666666666
848,508.0,526.5666666666667
849,537.0,526.8
850,538.0,526.9666666666667
851,506.0,526.8666666666667
852,492.0,526.6666666666666
853,505.0,526.5333333333333
854,528.0,526.6
855,526.0,526.5333333333333
856,494.0,526.8333333333334
857,491.0,526.9666666666667
858,500.0,527.1
859,531.0,527.3
860,533.0,527.5
861,502.0,527.3333333333334
862,497.0,526.8333333333334
863,508.0,526.6666666666666
864,531.0,526.4333333333333
865,533.0,526.3333333333334
866,506.0,526.3
867,483.0,526.6666666666666
868,507.0,526.7333333333333
869,548.0,527.2666666666667
870,540.0,527.5333333333333
871,504.0,527.6
872,493.0,527.4666666666667
873,508.0,527.1333333333333
874,537.0,527.7666666666667
875,537.0,528.1666666666666
876,504.0,528.1333333333333
877,489.0,528.4666666666667
878,506.0,528.5333333333333
879,533.0,528.4
880,530.0,528.1333333333333
881,499.0,528.3666666666667
882,482.0,528.7
883,500.0,528.8666666666667
884,525.0,528.7666666666667
885,527.0,528.8
886,505.0,528.4333333333333
887,496.0,528.2666666666667
888,496.0,528.4
889,522.0,528.1
890,535.0,528.1666666666666
891,507.0,528.0
892,491.0,528.2
893,501.0,528.4333333333333
894,528.0,528.3333333333334
895,530.0,528.2333333333333
896,504.0,528.3
897,490.0,528.0666666666667
898,507.0,528.0666666666667
899,532.0,527.5333333333333
900,529.0,527.1666666666666
901,500.0,527.3
902,494.0,527.2666666666667
903,508.0,527.2666666666667
904,528.0,526.9666666666667
905,529.0,526.7
906,499.0,526.8666666666667
907,487.0,526.9333333333333
908,503.0,527.0333333333333
909,528.0,526.8666666666667
910,535.0,527.0333333333333
911,505.0,526.8333333333334
912,488.0,526.6333333333333
913,504.0,526.5
914,523.0,526.4333333333333
915,520.0,526.2
916,493.0,526.6
917,496.0,526.6
918,509.0,526.1666666666666
919,526.0,526.3
920,530.0,526.1333333333333
921,512.0,525.9666666666667
922,496.0,525.8
923,506.0,525.6333333333333
924,532.0,525.7666666666667
925,535.0,525.9333333333333
926,504.0,525.9333333333333
927,487.0,526.0333333333333
928,501.0,526.2333333333333
929,530.0,526.1666666666666
930,536.0,526.4
931,507.0,526.1666666666666
932,492.0,526.2333333333333
933,502.0,526.4333333333333
934,528.0,526.4333333333333
935,531.0,526.5
936,498.0,526.5333333333333
937,482.0,526.7
938,500.0,526.8
939,529.0,526.8333333333334
940,530.0,526.6666666666666
941,491.0,527.1333333333333
942,481.0,527.3666666666667
943,508.0,527.2333333333333
944,536.0,527.6666666666666
945,533.0,528.1
946,511.0,527.5
947,497.0,527.4666666666667
948,506.0,527.5666666666667
949,531.0,527.7333333333333
950,531.0,527.7666666666667
951,498.0,528.2333333333333
952,489.0,528.4666666666667
953,506.0,528.4666666666667
954,533.0,528.5
955,528.0,528.2666666666667
956,499.0,528.4333333333333
957,490.0,528.3333333333334
958,500.0,528.3666666666667
959,522.0,528.1
960,530.0,527.9
961,505.0,527.9666666666667
962,490.0,528.0333333333333
963,503.0,528.0
964,523.0,527.8333333333334
965,528.0,527.7333333333333
966,503.0,527.5666666666667
967,487.0,527.4
968,506.0,527.2
969,528.0,527.1666666666666
970,533.0,527.2666666666667
971,504.0,526.8333333333334
972,497.0,526.3
973,504.0,526.4333333333333
974,525.0,526.0666666666667
975,530.0,525.9666666666667
976,499.0,526.3666666666667
977,491.0,526.5666666666667
978,507.0,526.5333333333333
979,530.0,526.5
980,532.0,526.5333333333333
981,508.0,526.2
982,494.0,526.0333333333333
983,498.0,526.3
984,528.0,526.1333333333333
985,539.0,526.5
986,506.0,526.2666666666667
987,488.0,526.3333333333334
988,503.0,526.2333333333333
989,531.0,526.5333333333333
990,536.0,526.7333333333333
991,508.0,526.6333333333333
992,494.0,526.5
993,500.0,526.6
994,521.0,526.5333333333333
995,536.0,526.8
996,507.0,526.6666666666666
997,490.0,526.5666666666667
998,506.0,526.5666666666667
999,529.0,526.6
1000,534.0,526.6333333333333
1001,500.0,526.7666666666667
1002,485.0,527.1666666666666
1003,496.0,527.4333333333333
1004,525.0,527.4333333333333
1005,536.0,527.6333333333333
1006,510.0,527.2666666666667
1007,497.0,527.0666666666667
1008,502.0,527.2333333333333
1009,522.0,526.9666666666667
1010,536.0,527.1
1011,513.0,527.0
1012,497.0,526.9
1013,505.0,526.6666666666666
1014,531.0,526.7666666666667
1015,538.0,526.7333333333333
1016,509.0,526.6333333333333
1017,491.0,526.5333333333333
1018,500.0,526.6333333333333
1019,533.0,526.7
1020,534.0,526.6333333333333
1021,502.0,526.8333333333334
1022,488.0,527.0333333333333
1023,498.0,527.1
1024,523.0,527.1666666666666
1025,528.0,526.9
1026,506.0,526.9333333333333
1027,491.0,526.9
1028,507.0,526.8666666666667
1029,530.0,526.9
1030,525.0,526.6
1031,502.0,526.5333333333333
1032,498.0,526.1
1033,508.0,525.7
1034,529.0,525.8333333333334
1035,530.0,525.6333333333333
1036,502.0,525.9
1037,486.0,526.2666666666667
1038,499.0,526.3666666666667
1039,526.0,526.5
1040,528.0,526.2333333333333
1041,501.0,526.5666666666667
1042,489.0,526.8333333333334
1043,504.0,526.8666666666667
1044,532.0,526.9
1045,532.0,526.7
1046,507.0,526.7666666666667
1047,496.0,526.6
1048,502.0,526.5333333333333
1049,522.0,526.1666666666666
1050,532.0,526.1
1051,506.0,525.9666666666667
1052,492.0,525.8333333333334
1053,502.0,525.7
1054,525.0,525.7666666666667
1055,528.0,525.7666666666667
1056,510.0,525.6333333333333
1057,499.0,525.3666666666667
1058,498.0,525.6666666666666
1059,524.0,525.4666666666667
1060,532.0,525.7
1061,506.0,525.5666666666667
1062,489.0,525.8666666666667
1063,496.0,526.2666666666667
1064,527.0,526.2
1065,532.0,526.2666666666667
1066,500.0,526.3333333333334
1067,491.0,526.1666666666666
1068,513.0,525.7666666666667
1069,537.0,526.1333333333333
1070,534.0,526.3333333333334
1071,505.0,526.2
1072,491.0,526.1333333333333
1073,505.0,526.1
1074,528.0,525.9666666666667
1075,532.0,525.9666666666667
1076,506.0,526.0
1077,486.0,526.3333333333334
1078,505.0,526.2333333333333
1079,531.0,526.5333333333333
1080,535.0,526.6333333333333
1081,498.0,526.9
1082,483.0,527.2
1083,496.0,527.4
1084,528.0,527.5
1085,529.0,527.5333333333333
1086,502.0,527.8
1087,494.0,527.9666666666667
1088,505.0,527.7333333333333
1089,524.0,527.7333333333333
1090,526.0,527.5333333333333
1091,502.0,527.6666666666666
1092,491.0,527.6
1093,503.0,527.3666666666667
1094,528.0,527.4
1095,532.0,527.4
1096,507.0,527.1666666666666
1097,492.0,527.1333333333333
1098,501.0,527.4666666666667
1099,519.0,526.8666666666667
1100,527.0,526.6333333333333
1101,502.0,526.7333333333333
1102,492.0,526.7
1103,504.0,526.7333333333333
1104,530.0,526.8
1105,532.0,526.8
1106,501.0,526.9666666666667
1107,488.0,526.9
1108,497.0,527.1666666666666
1109,525.0,526.9666666666667
1110,531.0,526.8333333333334
1111,502.0,526.7
1112,486.0,526.6
1113,497.0,526.5666666666667
1114,524.0,526.4333333333333
1115,537.0,526.7
1116,503.0,526.6666666666666
1117,492.0,526.7333333333333
1118,501.0,526.8666666666667
1119,524.0,526.8666666666667
1120,531.0,527.0333333333333
1121,502.0,527.0333333333333
1122,488.0,527.1333333333333
1123,506.0,527.0333333333333
1124,524.0,526.9
1125,534.0,526.9666666666667
1126,502.0,527.1333333333333
1127,487.0,527.3
1128,504.0,527.2
1129,528.0,527.5
1130,531.0,527.6333333333333
1131,497.0,527.8
1132,483.0,528.1
1133,497.0,528.3333333333334
1134,519.0,527.9666666666667
1135,532.0,527.9666666666667
1136,508.0,527.7333333333333
1137,488.0,527.7333333333333
1138,495.0,527.8
1139,530.0,527.9666666666667
1140,536.0,528.1333333333333
1141,502.0,528.1333333333333
1142,495.0,527.8333333333334
1143,503.0,527.6333333333333
1144,526.0,527.7
1145,532.0,527.5333333333333
1146,501.0,527.6
1147,486.0,527.8
1148,506.0,527.6333333333333
1149,538.0,528.1
1150,530.0,528.0666666666667
1151,500.0,528.1333333333333
1152,491.0,528.0333333333333
1153,507.0,528.0
1154,533.0,528.3
1155,536.0,528.3666666666667
1156,500.0,528.4333333333333
1157,492.0,528.2666666666667
1158,509.0,528.1
1159,530.0,528.1666666666666
1160,535.0,528.3
1161,505.0,528.0333333333333
1162,486.0,527.9333333333333
1163,501.0,527.8
1164,527.0,528.0666666666667
1165,529.0,527.9666666666667
1166,502.0,528.1666666666666
1167,484.0,528.3
1168,494.0,528.3333333333334
1169,525.0,528.1666666666666
1170,528.0,527.9
1171,500.0,527.9666666666667
1172,480.0,528.4666666666667
1173,486.0,529.0333333333333
1174,525.0,529.0
1175,538.0,529.2
1176,509.0,528.9333333333333
1177,492.0,528.7333333333333
1178,503.0,528.8333333333334
1179,528.0,528.5
1180,532.0,528.5666666666667
1181,509.0,528.2666666666667
1182,495.0,528.1333333333333
1183,501.0,528.3333333333334
1184,524.0,528.0333333333333
1185,532.0,527.9
1186,507.0,527.6666666666666
1187,489.0,527.7666666666667
1188,501.0,528.0333333333333
1189,528.0,527.9666666666667
1190,529.0,527.7666666666667
1191,496.0,528.0666666666667
1192,489.0,527.9666666666667
1193,499.0,528.0333333333333
1194,525.0,527.9666666666667
1195,533.0,528.1
1196,505.0,528.0
1197,484.0,528.0
1198,496.0,527.9333333333333
1199,525.0,527.9333333333333
1200,537.0,528.2333333333333
1201,505.0,528.0666666666667
1202,492.0,527.6666666666666
1203,498.0,527.2666666666667
1204,520.0,527.1
1205,529.0,526.8
1206,500.0,527.1
1207,485.0,527.3333333333334
1208,500.0,527.4333333333333
1209,519.0,527.1333333333333
1210,526.0,526.9333333333333
1211,508.0,526.9666666666667
1212,485.0,527.3
1213,497.0,527.4333333333333
1214,526.0,527.5
1215,531.0,527.4666666666667
1216,507.0,527.4666666666667
1217,492.0,527.3666666666667
1218,505.0,527.2333333333333
1219,528.0,527.2333333333333
1220,531.0,527.3
1221,503.0,527.0666666666667
1222,491.0,527.0
1223,497.0,527.0666666666667
1224,526.0,527.1
1225,536.0,527.2
1226,506.0,527.1666666666666
1227,486.0,527.1
1228,496.0,527.1
1229,522.0,527.0
1230,527.0,526.6666666666666
1231,502.0,526.7666666666667
1232,488.0,526.9
1233,505.0,526.6666666666666
1234,530.0,527.0
1235,534.0,527.1666666666666
1236,503.0,527.0666666666667
1237,487.0,527.0
1238,499.0,527.0333333333333
1239,523.0,527.1666666666666
1240,535.0,527.4666666666667
1241,509.0,527.4333333333333
1242,490.0,527.2666666666667
1243,506.0,526.9666666666667
1244,525.0,526.9333333333333
1245,532.0,526.9666666666667
1246,501.0,527.1666666666666
1247,483.0,527.4666666666667
1248,502.0,527.5666666666667
1249,525.0,527.4666666666667
