Action_Label,hiya_down
Fs_Hz,250
Total_Samples,1250

Sample_Index,Raw_EMG,Envelope
0,484.0,530.1666666666666
1,490.0,530.2666666666667
2,521.0,530.1666666666666
3,539.0,530.1
4,515.0,530.1666666666666
5,484.0,530.1333333333333
6,489.0,530.1666666666666
7,518.0,530.0333333333333
8,536.0,529.8333333333334
9,511.0,529.8
10,487.0,529.8
11,491.0,529.7666666666667
12,520.0,529.7333333333333
13,542.0,529.7
14,514.0,529.7
15,482.0,529.7333333333333
16,487.0,529.8
17,518.0,529.6
18,538.0,529.4
19,512.0,529.2666666666667
20,485.0,529.3333333333334
21,490.0,529.4
22,520.0,529.3666666666667
23,538.0,529.2
24,509.0,529.2
25,476.0,529.4666666666667
26,488.0,529.5666666666667
27,525.0,529.7333333333333
28,539.0,529.7
29,509.0,529.7666666666667
30,482.0,529.8333333333334
31,491.0,529.8
32,520.0,529.7666666666667
33,543.0,529.9
34,519.0,530.0333333333333
35,488.0,529.9
36,492.0,529.8
37,522.0,529.9333333333333
38,538.0,530.0
39,516.0,530.1
40,489.0,530.0333333333333
41,494.0,529.9333333333333
42,523.0,530.0333333333333
43,540.0,529.9666666666667
44,512.0,529.9
45,482.0,529.9
46,487.0,529.9
47,522.0,530.0333333333333
48,542.0,530.1666666666666
49,516.0,530.3
50,487.0,530.2333333333333
51,490.0,530.2333333333333
52,523.0,530.3333333333334
53,542.0,530.4666666666667
54,513.0,530.4
55,485.0,530.1
56,496.0,529.8333333333334
57,524.0,529.8
58,544.0,529.9666666666667
59,517.0,530.0333333333333
60,488.0,529.8333333333334
61,493.0,529.7666666666667
62,523.0,529.8666666666667
63,540.0,529.7666666666667
64,516.0,529.6666666666666
65,490.0,529.6
66,489.0,529.7
67,520.0,529.6333333333333
68,544.0,529.8333333333334
69,516.0,529.8333333333334
70,487.0,529.9
71,489.0,530.0666666666667
72,517.0,529.8666666666667
73,539.0,529.8333333333334
74,510.0,529.9
75,484.0,529.8333333333334
76,492.0,529.6666666666666
77,517.0,529.5
78,535.0,529.2666666666667
79,511.0,529.1666666666666
80,483.0,529.3
81,490.0,529.3
82,520.0,529.2
83,537.0,529.0333333333333
84,514.0,529.0666666666667
85,486.0,529.0333333333333
86,490.0,529.2333333333333
87,518.0,529.0333333333333
88,539.0,528.8666666666667
89,514.0,528.7666666666667
90,485.0,528.8666666666667
91,489.0,529.0
92,520.0,528.9
93,540.0,528.9
94,514.0,528.8333333333334
95,484.0,529.0333333333333
96,490.0,529.0
97,522.0,529.0666666666667
98,545.0,529.1
99,518.0,529.1666666666666
100,490.0,529.0666666666667
101,492.0,528.9666666666667
102,520.0,529.0666666666667
103,540.0,529.1
104,519.0,529.2666666666667
105,491.0,529.0333333333333
106,491.0,529.0666666666667
107,517.0,529.0666666666667
108,542.0,529.3
109,518.0,529.4666666666667
110,493.0,529.1333333333333
111,495.0,528.9666666666667
112,521.0,529.0
113,542.0,529.1666666666666
114,515.0,529.2
115,485.0,529.2333333333333
116,490.0,529.2333333333333
117,520.0,529.3
118,539.0,529.3
119,516.0,529.3666666666667
120,487.0,529.3
121,490.0,529.2666666666667
122,522.0,529.3333333333334
123,546.0,529.5333333333333
124,518.0,529.6666666666666
125,487.0,529.5666666666667
126,490.0,529.5666666666667
127,519.0,529.4666666666667
128,544.0,529.4333333333333
129,518.0,529.4333333333333
130,488.0,529.5
131,490.0,529.5666666666667
132,519.0,529.5333333333333
133,542.0,529.6
134,517.0,529.5333333333333
135,485.0,529.7333333333333
136,489.0,529.8
137,519.0,529.8666666666667
138,542.0,529.8666666666667
139,515.0,529.7666666666667
140,486.0,530.0
141,490.0,530.1666666666666
142,521.0,530.1666666666666
143,540.0,530.1
144,515.0,530.1
145,486.0,530.0666666666667
146,492.0,530.0
147,520.0,530.0
148,544.0,530.1666666666666
149,516.0,530.1666666666666
150,482.0,530.3333333333334
151,494.0,530.2
152,521.0,530.1666666666666
153,543.0,530.0666666666667
154,521.0,530.1666666666666
155,489.0,530.1
156,490.0,530.1
157,519.0,530.1
158,542.0,530.0333333333333
159,517.0,530.0
160,487.0,530.0333333333333
161,490.0,530.0333333333333
162,517.0,529.9666666666667
163,540.0,529.9
164,518.0,529.9333333333333
165,487.0,529.8666666666667
166,493.0,529.7333333333333
167,521.0,529.8
168,543.0,529.8333333333334
169,520.0,530.0
170,490.0,529.8666666666667
171,490.0,529.8666666666667
172,519.0,529.8
173,543.0,529.9
174,517.0,529.9666666666667
175,484.0,530.0333333333333
176,487.0,530.2
177,518.0,530.1333333333333
178,539.0,529.9666666666667
179,516.0,529.9666666666667
180,489.0,529.7333333333333
181,490.0,529.8666666666667
182,521.0,529.8666666666667
183,548.0,530.0333333333333
184,525.0,530.1666666666666
185,491.0,530.1
186,491.0,530.0666666666667
187,523.0,530.2
188,545.0,530.3
189,519.0,530.3666666666667
190,488.0,530.3333333333334
191,492.0,530.2666666666667
192,520.0,530.3666666666667
193,540.0,530.3666666666667
194,518.0,530.3666666666667
195,489.0,530.3
196,492.0,530.3333333333334
197,520.0,530.3
198,541.0,530.2333333333333
199,516.0,530.1
200,490.0,530.1
201,491.0,530.0666666666667
202,519.0,530.0666666666667
203,541.0,530.0
204,521.0,530.1333333333333
205,486.0,530.0666666666667
206,492.0,529.9
207,524.0,530.1
208,545.0,530.3
209,517.0,530.3333333333334
210,488.0,530.3666666666667
211,491.0,530.3333333333334
212,519.0,530.2666666666667
213,540.0,530.0
214,516.0,529.7
215,489.0,529.7666666666667
216,492.0,529.7333333333333
217,517.0,529.5333333333333
218,536.0,529.2333333333333
219,508.0,529.1333333333333
220,480.0,529.4
221,487.0,529.5666666666667
222,520.0,529.5666666666667
223,541.0,529.6
224,516.0,529.5333333333333
225,487.0,529.6
226,489.0,529.7
227,519.0,529.6666666666666
228,540.0,529.6333333333333
229,512.0,529.5
230,483.0,529.7333333333333
231,492.0,529.7
232,519.0,529.7
233,539.0,529.6333333333333
234,518.0,529.5333333333333
235,490.0,529.4
236,491.0,529.4333333333333
237,516.0,529.1666666666666
238,537.0,528.9
239,514.0,528.8
240,487.0,528.8333333333334
241,491.0,528.8333333333334
242,517.0,528.7666666666667
243,535.0,528.6
244,513.0,528.5
245,490.0,528.4666666666667
246,495.0,528.3666666666667
247,518.0,528.4
248,537.0,528.4333333333333
249,514.0,528.3666666666667
250,488.0,528.1
251,491.0,527.9666666666667
252,516.0,527.8333333333334
253,537.0,527.7
254,515.0,527.6666666666666
255,488.0,527.6333333333333
256,491.0,527.5666666666667
257,518.0,527.5333333333333
258,537.0,527.4333333333333
259,515.0,527.5333333333333
260,487.0,527.4
261,488.0,527.5333333333333
262,516.0,527.4333333333333
263,537.0,527.3666666666667
264,513.0,527.2
265,485.0,527.3666666666667
266,490.0,527.4
267,514.0,527.3333333333334
268,534.0,527.2333333333333
269,513.0,527.2
270,488.0,527.1666666666666
271,494.0,527.0666666666667
272,518.0,527.1
273,536.0,527.1333333333333
274,513.0,527.1333333333333
275,487.0,527.2333333333333
276,493.0,527.3
277,522.0,527.4333333333333
278,541.0,527.5666666666667
279,515.0,527.6
280,489.0,527.5666666666667
281,494.0,527.4666666666667
282,519.0,527.5666666666667
283,534.0,527.4666666666667
284,513.0,527.4
285,490.0,527.3333333333334
286,493.0,527.2666666666667
287,517.0,527.2333333333333
288,535.0,527.1666666666666
289,512.0,527.0666666666667
290,488.0,527.0333333333333
291,492.0,526.9
292,517.0,526.9333333333333
293,538.0,526.9666666666667
294,520.0,527.2
295,492.0,526.9666666666667
296,499.0,526.6666666666666
297,524.0,527.0
298,542.0,527.2666666666667
299,518.0,527.4333333333333
300,490.0,527.3666666666667
301,494.0,527.3666666666667
302,520.0,527.4333333333333
303,535.0,527.4
304,514.0,527.4333333333333
305,490.0,527.3333333333334
306,494.0,527.3
307,522.0,527.3
308,539.0,527.2333333333333
309,516.0,527.2666666666667
310,491.0,527.2
311,493.0,527.2333333333333
312,520.0,527.2666666666667
313,535.0,527.3
314,515.0,527.3666666666667
315,493.0,527.2666666666667
316,495.0,527.2
317,520.0,527.3
318,535.0,527.3
319,514.0,527.3666666666667
320,492.0,527.2333333333333
321,495.0,527.1333333333333
322,520.0,527.2333333333333
323,537.0,527.2
324,518.0,527.1333333333333
325,490.0,527.2
326,493.0,527.4
327,520.0,527.2666666666667
328,538.0,527.1333333333333
329,514.0,527.0
330,489.0,527.0333333333333
331,492.0,527.1
332,513.0,526.8666666666667
333,533.0,526.8
334,514.0,526.8
335,489.0,526.8333333333334
336,495.0,526.8
337,519.0,526.7
338,534.0,526.5333333333333
339,514.0,526.4666666666667
340,491.0,526.4666666666667
341,496.0,526.3666666666667
342,522.0,526.4333333333333
343,541.0,526.6333333333333
344,517.0,526.7
345,491.0,526.7666666666667
346,498.0,526.6666666666666
347,522.0,526.7333333333333
348,538.0,526.8333333333334
349,514.0,526.8333333333334
350,489.0,526.9333333333333
351,495.0,526.9333333333333
352,521.0,526.9666666666667
353,539.0,527.0333333333333
354,515.0,526.9333333333333
355,487.0,527.0333333333333
356,493.0,527.0333333333333
357,518.0,526.9666666666667
358,535.0,526.8666666666667
359,513.0,526.8333333333334
360,482.0,527.0666666666667
361,484.0,527.3333333333334
362,506.0,527.5
363,479.0,527.9
364,434.0,530.4333333333333
365,397.0,533.5
366,378.0,537.4
367,426.0,540.0333333333333
368,411.0,542.6666666666666
369,388.0,546.7333333333333
370,353.0,551.3333333333334
371,313.0,557.4333333333333
372,414.0,560.3666666666667
373,448.0,561.5333333333333
374,446.0,563.5666666666667
375,398.0,566.6666666666666
376,452.0,568.2
377,478.0,569.0
378,461.0,569.8333333333334
379,573.0,571.8
380,608.0,574.2333333333333
381,540.0,574.6
382,531.0,574.9333333333333
383,518.0,574.2333333333333
384,609.0,577.3666666666667
385,647.0,581.0333333333333
386,581.0,582.7
387,532.0,583.1666666666666
388,623.0,586.1
389,671.0,591.3666666666667
390,619.0,593.9333333333334
391,566.0,594.8
392,553.0,595.9666666666667
393,609.0,598.1
394,609.0,598.7333333333333
395,553.0,596.2666666666667
396,505.0,592.0333333333333
397,543.0,590.2
398,614.0,590.2333333333333
399,592.0,588.7666666666667
400,555.0,584.9
401,544.0,579.3333333333334
402,545.0,577.1666666666666
403,535.0,575.8
404,525.0,574.0333333333333
405,511.0,570.2666666666667
406,499.0,568.7
407,522.0,567.9
408,503.0,566.5
409,492.0,565.1333333333333
410,462.0,563.6
411,491.0,563.3666666666667
412,488.0,563.5333333333333
413,464.0,564.9333333333333
414,442.0,564.0333333333333
415,424.0,562.4666666666667
416,458.0,561.9666666666667
417,480.0,562.3666666666667
418,511.0,558.7
419,502.0,553.7333333333333
420,479.0,551.2666666666667
421,504.0,549.7333333333333
422,515.0,548.4666666666667
423,532.0,545.9
424,509.0,542.7666666666667
425,452.0,543.4
426,448.0,545.3
427,495.0,544.8333333333334
428,552.0,542.7666666666667
429,516.0,540.2333333333333
430,467.0,540.3
431,477.0,540.4
432,518.0,539.5
433,551.0,540.0333333333333
434,522.0,539.9333333333333
435,466.0,541.4333333333333
436,480.0,542.0666666666667
437,524.0,542.1333333333333
438,538.0,542.7
439,494.0,542.6333333333333
440,470.0,542.3666666666667
441,477.0,542.8333333333334
442,512.0,542.0333333333333
443,558.0,541.9666666666667
444,536.0,540.4333333333333
445,493.0,538.1333333333333
446,488.0,537.1333333333333
447,523.0,536.4333333333333
448,561.0,538.0333333333333
449,539.0,538.6
450,477.0,538.6666666666666
451,477.0,539.5666666666667
452,519.0,539.7
453,565.0,540.8
454,526.0,541.1666666666666
455,475.0,540.4
456,479.0,539.3666666666667
457,514.0,538.8666666666667
458,559.0,539.1
459,526.0,539.4333333333333
460,472.0,539.2666666666667
461,477.0,539.2666666666667
462,532.0,539.7333333333333
463,553.0,539.8
464,519.0,539.7
465,483.0,539.1333333333333
466,486.0,538.9333333333333
467,525.0,538.9666666666667
468,557.0,539.6
469,518.0,539.2
470,484.0,538.7333333333333
471,488.0,538.3666666666667
472,522.0,538.7
473,549.0,538.4
474,517.0,537.7666666666667
475,481.0,538.1666666666666
476,487.0,538.2
477,522.0,538.1666666666666
478,545.0,537.6333333333333
479,517.0,536.9
480,474.0,537.0
481,484.0,536.7666666666667
482,530.0,537.1333333333333
483,551.0,536.6666666666666
484,524.0,536.6
485,493.0,536.0
486,493.0,535.5333333333333
487,525.0,535.9
488,556.0,535.8
489,533.0,536.0333333333333
490,495.0,535.2666666666667
491,504.0,534.3666666666667
492,529.0,534.2666666666667
493,553.0,534.2666666666667
494,527.0,534.5333333333333
495,482.0,534.5666666666667
496,493.0,534.3333333333334
497,533.0,534.6
498,556.0,534.5666666666667
499,523.0,534.7333333333333
500,483.0,534.7666666666667
501,487.0,534.8
502,523.0,534.8333333333334
503,543.0,534.6333333333333
504,515.0,534.5666666666667
505,488.0,534.3333333333334
506,497.0,534.0
507,532.0,534.3333333333334
508,560.0,534.8333333333334
509,533.0,535.3666666666667
510,497.0,534.6
511,496.0,534.2
512,532.0,534.2666666666667
513,554.0,534.3666666666667
514,522.0,534.3
515,496.0,534.2
516,496.0,534.1
517,519.0,533.9
518,548.0,533.6333333333333
519,518.0,533.1333333333333
520,482.0,533.5666666666667
521,482.0,534.3
522,518.0,533.9333333333333
523,546.0,533.7
524,501.0,533.5666666666667
525,479.0,533.6666666666666
526,493.0,533.6666666666666
527,528.0,533.5
528,551.0,533.3333333333334
529,525.0,533.4
530,488.0,533.2333333333333
531,483.0,533.3666666666667
532,520.0,533.2666666666667
533,548.0,533.4333333333333
534,526.0,533.8
535,489.0,533.7666666666667
536,487.0,534.1
537,516.0,533.5666666666667
538,546.0,533.1
539,517.0,532.5666666666667
540,480.0,533.1333333333333
541,482.0,533.6
542,520.0,533.2
543,546.0,532.9333333333333
544,522.0,532.9333333333333
545,487.0,533.2333333333333
546,487.0,533.5333333333333
547,522.0,533.6333333333333
548,555.0,533.8666666666667
549,524.0,534.0666666666667
550,483.0,534.0333333333333
551,481.0,534.0666666666667
552,518.0,534.0666666666667
553,546.0,534.0666666666667
554,522.0,534.0333333333333
555,488.0,533.7333333333333
556,497.0,533.6
557,529.0,533.6333333333333
558,554.0,533.7333333333333
559,526.0,533.7666666666667
560,484.0,533.9
561,484.0,533.8666666666667
562,519.0,533.8333333333334
563,545.0,533.7333333333333
564,519.0,533.5
565,476.0,533.9333333333333
566,480.0,534.1666666666666
567,517.0,534.2
568,542.0,534.0666666666667
569,522.0,534.2333333333333
570,483.0,534.1333333333333
571,484.0,534.0666666666667
572,522.0,534.1333333333333
573,545.0,534.1
574,522.0,534.1
575,482.0,534.2666666666667
576,489.0,534.2
577,522.0,534.2
578,549.0,534.0
579,523.0,533.9666666666667
580,480.0,534.0666666666667
581,478.0,534.1666666666666
582,507.0,534.1333333333333
583,544.0,534.0666666666667
584,524.0,534.1333333333333
585,488.0,534.1333333333333
586,489.0,534.4
587,520.0,534.1
588,545.0,533.8
589,516.0,533.4666666666667
590,479.0,533.6333333333333
591,482.0,533.7
592,520.0,533.7333333333333
593,545.0,533.7333333333333
594,519.0,533.7333333333333
595,483.0,533.5
596,485.0,533.3333333333334
597,520.0,533.4333333333333
598,543.0,533.4666666666667
599,516.0,533.2666666666667
600,481.0,533.3333333333334
601,484.0,533.3333333333334
602,523.0,533.3666666666667
603,549.0,533.5
604,522.0,533.5
605,479.0,533.6
606,483.0,533.8
607,518.0,533.6666666666666
608,547.0,533.6
609,519.0,533.4666666666667
610,481.0,533.4333333333333
611,485.0,533.2
612,521.0,533.3333333333334
613,551.0,533.5666666666667
614,524.0,533.5666666666667
615,480.0,533.8333333333334
616,487.0,533.9
617,518.0,533.8333333333334
618,541.0,533.7
619,519.0,533.8
620,481.0,533.7333333333333
621,483.0,533.7
622,519.0,533.6666666666666
623,550.0,533.8333333333334
624,523.0,533.9666666666667
625,476.0,534.2
626,481.0,534.3333333333334
627,521.0,534.3666666666667
628,553.0,534.7
629,524.0,534.9666666666667
630,483.0,534.9
631,483.0,534.9333333333333
632,523.0,534.9333333333333
633,554.0,535.1
634,528.0,535.3
635,485.0,535.1
636,482.0,535.1333333333333
637,519.0,535.1666666666666
638,546.0,535.1333333333333
639,521.0,535.2
640,482.0,535.1666666666666
641,483.0,535.2333333333333
642,526.0,535.4
643,553.0,535.4666666666667
644,519.0,535.3
645,478.0,535.3666666666667
646,483.0,535.5
647,520.0,535.5666666666667
648,552.0,535.9333333333333
649,521.0,536.0
650,478.0,536.1
651,478.0,536.2666666666667
652,520.0,536.3
653,551.0,536.3333333333334
654,523.0,536.3333333333334
655,482.0,536.1333333333333
656,484.0,536.0333333333333
657,516.0,535.8666666666667
658,545.0,535.6
659,524.0,535.6
660,483.0,535.6
661,480.0,535.7
662,523.0,535.7
663,550.0,535.5666666666667
664,525.0,535.4666666666667
665,481.0,535.6
666,478.0,535.7333333333333
667,512.0,535.5
668,551.0,535.6666666666666
669,529.0,535.9333333333333
670,480.0,536.0
671,479.0,536.1333333333333
672,518.0,535.8666666666667
673,549.0,535.7333333333333
674,521.0,535.8
675,476.0,535.8666666666667
676,481.0,535.9333333333333
677,520.0,535.9333333333333
678,551.0,535.9
679,527.0,536.1
680,482.0,535.9666666666667
681,481.0,535.8666666666667
682,518.0,535.8
683,548.0,535.7
684,525.0,535.7666666666667
685,479.0,535.8666666666667
686,476.0,536.1333333333333
687,516.0,536.1333333333333
688,555.0,536.4666666666667
689,528.0,536.6
690,482.0,536.6333333333333
691,489.0,536.3333333333334
692,522.0,536.3
693,553.0,536.4
694,533.0,536.6666666666666
695,485.0,536.5333333333333
696,483.0,536.3666666666667
697,521.0,536.6666666666666
698,551.0,536.6666666666666
699,525.0,536.5333333333333
700,484.0,536.4
701,482.0,536.3
702,517.0,536.2666666666667
703,551.0,536.3333333333334
704,527.0,536.5333333333333
705,485.0,536.2333333333333
706,481.0,536.2333333333333
707,518.0,536.1666666666666
708,546.0,536.0
709,526.0,535.9666666666667
710,482.0,535.9666666666667
711,481.0,535.9666666666667
712,514.0,535.8333333333334
713,551.0,535.9333333333333
714,530.0,536.1
715,482.0,536.0
716,478.0,535.9333333333333
717,520.0,536.0666666666667
718,554.0,536.0333333333333
719,524.0,535.9
720,479.0,536.0
721,479.0,536.3333333333334
722,520.0,536.2666666666667
723,556.0,536.3666666666667
724,534.0,536.4
725,487.0,536.3333333333334
726,485.0,536.2666666666667
727,517.0,536.1333333333333
728,551.0,536.1333333333333
729,530.0,536.3
730,485.0,536.2666666666667
731,482.0,536.2666666666667
732,519.0,536.3333333333334
733,552.0,536.3666666666667
734,531.0,536.5
735,478.0,536.7333333333333
736,479.0,536.8
737,517.0,536.7666666666667
738,550.0,536.9
739,528.0,536.9666666666667
740,480.0,537.0333333333333
741,479.0,537.1
742,519.0,537.2666666666667
743,555.0,537.4
744,530.0,537.4
745,479.0,537.5
746,480.0,537.4333333333333
747,519.0,537.4
748,555.0,537.4333333333333
749,531.0,537.6666666666666
750,480.0,537.6333333333333
751,477.0,537.7
752,515.0,537.5333333333333
753,548.0,537.2666666666667
754,531.0,537.1666666666666
755,482.0,537.3333333333334
756,481.0,537.4666666666667
757,515.0,537.4
758,546.0,537.2333333333333
759,528.0,537.1666666666666
760,481.0,537.3
761,476.0,537.5
762,512.0,537.2666666666667
763,547.0,537.1
764,529.0,537.0333333333333
765,481.0,536.9333333333333
766,477.0,537.0
767,514.0,536.9
768,547.0,536.8
769,525.0,536.7
770,481.0,536.6666666666666
771,477.0,536.7333333333333
772,513.0,536.5333333333333
773,549.0,536.3333333333334
774,531.0,536.3666666666667
775,481.0,536.3
776,471.0,536.6
777,510.0,536.4333333333333
778,548.0,536.2
779,530.0,536.1666666666666
780,480.0,536.1666666666666
781,472.0,536.3333333333334
782,508.0,536.3666666666667
783,547.0,536.3333333333334
784,529.0,536.2666666666667
785,480.0,536.3333333333334
786,475.0,536.5333333333333
787,511.0,536.4666666666667
788,549.0,536.5666666666667
789,524.0,536.4333333333333
790,479.0,536.5
791,480.0,536.3666666666667
792,514.0,536.4333333333333
793,550.0,536.5333333333333
794,531.0,536.6
795,479.0,536.6666666666666
796,473.0,536.8
797,514.0,536.8
798,551.0,536.9333333333333
799,530.0,537.1
800,483.0,537.0333333333333
801,477.0,537.0333333333333
802,512.0,537.0
803,552.0,537.1
804,530.0,537.0666666666667
805,480.0,537.1
806,476.0,536.9333333333333
807,513.0,536.9
808,550.0,536.9666666666667
809,530.0,536.9666666666667
810,478.0,537.0333333333333
811,474.0,536.9666666666667
812,514.0,536.9
813,552.0,537.0666666666667
814,531.0,537.1333333333333
815,481.0,537.1
816,475.0,537.1
817,514.0,537.1333333333333
818,552.0,537.2333333333333
819,534.0,537.5666666666667
820,484.0,537.4
821,474.0,537.6
822,511.0,537.5666666666667
823,552.0,537.6333333333333
824,531.0,537.6333333333333
825,485.0,537.4333333333333
826,482.0,537.1333333333333
827,517.0,537.2333333333333
828,555.0,537.3666666666667
829,532.0,537.4333333333333
830,483.0,537.4333333333333
831,474.0,537.5333333333333
832,513.0,537.5666666666667
833,554.0,537.6333333333333
834,533.0,537.7333333333333
835,482.0,537.6666666666666
836,479.0,537.5666666666667
837,516.0,537.6666666666666
838,549.0,537.6333333333333
839,532.0,537.7
840,486.0,537.4333333333333
841,478.0,537.3
842,514.0,537.3
843,551.0,537.2666666666667
844,535.0,537.4
845,484.0,537.3
846,478.0,537.2
847,514.0,537.2
848,549.0,537.1
849,529.0,536.9333333333333
850,484.0,536.9333333333333
851,479.0,536.7666666666667
852,516.0,536.8666666666667
853,553.0,536.9
854,533.0,536.9666666666667
855,483.0,537.0333333333333
856,474.0,537.3
857,516.0,537.2666666666667
858,555.0,537.2666666666667
859,534.0,537.3333333333334
860,488.0,537.1666666666666
861,480.0,536.9666666666667
862,513.0,536.9666666666667
863,551.0,536.8666666666667
864,534.0,536.9
865,486.0,536.7666666666667
866,482.0,536.6666666666666
867,515.0,536.6333333333333
868,553.0,536.7666666666667
869,531.0,536.7333333333333
870,481.0,536.9
871,475.0,537.0
872,511.0,536.9666666666667
873,548.0,536.8666666666667
874,529.0,536.6666666666666
875,485.0,536.6333333333333
876,479.0,536.6
877,509.0,536.6333333333333
878,547.0,536.5666666666667
879,530.0,536.6
880,485.0,536.5666666666667
881,479.0,536.5666666666667
882,514.0,536.5
883,551.0,536.4333333333333
884,530.0,536.3333333333334
885,482.0,536.3666666666667
886,477.0,536.2666666666667
887,510.0,536.2
888,546.0,535.9
889,526.0,535.6333333333333
890,479.0,535.9333333333333
891,477.0,536.0333333333333
892,506.0,536.2
893,543.0,535.9333333333333
894,530.0,535.8
895,487.0,535.7666666666667
896,480.0,535.8333333333334
897,513.0,535.7666666666667
898,546.0,535.5333333333333
899,526.0,535.3666666666667
900,480.0,535.4
901,474.0,535.4333333333333
902,510.0,535.4666666666667
903,546.0,535.4
904,528.0,535.3666666666667
905,482.0,535.4666666666667
906,476.0,535.5666666666667
907,511.0,535.5
908,546.0,535.4666666666667
909,528.0,535.4
910,482.0,535.5
911,479.0,535.5
912,511.0,535.4666666666667
913,545.0,535.2666666666667
914,526.0,535.1333333333333
915,482.0,535.1333333333333
916,475.0,535.2
917,509.0,535.2333333333333
918,545.0,535.2
919,528.0,535.2666666666667
920,483.0,535.1333333333333
921,475.0,535.2
922,507.0,535.1666666666666
923,545.0,535.2333333333333
924,532.0,535.3
925,487.0,535.3
926,481.0,535.2666666666667
927,515.0,535.3333333333334
928,549.0,535.4333333333333
929,531.0,535.6
930,487.0,535.3666666666667
931,479.0,535.2
932,513.0,535.1666666666666
933,549.0,535.2666666666667
934,532.0,535.4
935,486.0,535.2666666666667
936,479.0,535.1666666666666
937,512.0,535.1333333333333
938,552.0,535.3333333333334
939,530.0,535.4
940,484.0,535.3333333333334
941,479.0,535.3333333333334
942,512.0,535.3
943,547.0,535.3666666666667
944,528.0,535.4333333333333
945,481.0,535.4666666666667
946,478.0,535.3666666666667
947,515.0,535.3666666666667
948,547.0,535.4333333333333
949,531.0,535.5333333333333
950,484.0,535.5
951,476.0,535.4666666666667
952,509.0,535.4
953,543.0,535.3333333333334
954,525.0,535.1
955,483.0,535.2333333333333
956,483.0,535.1666666666666
957,515.0,535.1666666666666
958,546.0,535.0666666666667
959,529.0,535.0
960,484.0,535.1
961,480.0,535.0666666666667
962,510.0,535.1
963,542.0,534.8666666666667
964,529.0,534.7666666666667
965,484.0,534.8333333333334
966,480.0,534.8
967,514.0,534.8666666666667
968,548.0,534.7333333333333
969,528.0,534.6666666666666
970,483.0,534.7
971,474.0,534.8666666666667
972,513.0,534.9
973,549.0,534.9666666666667
974,531.0,535.0666666666667
975,483.0,535.0
976,478.0,535.0
977,514.0,534.9666666666667
978,548.0,535.0
979,531.0,535.0
980,487.0,534.9
981,480.0,534.7666666666667
982,508.0,534.8
983,546.0,534.9
984,532.0,535.1333333333333
985,488.0,534.9666666666667
986,481.0,535.0333333333333
987,510.0,535.0
988,545.0,534.9666666666667
989,531.0,535.0333333333333
990,486.0,534.9666666666667
991,481.0,534.9333333333333
992,512.0,534.8666666666667
993,546.0,535.0
994,531.0,535.0666666666667
995,491.0,534.8333333333334
996,484.0,534.7
997,515.0,534.7333333333333
998,548.0,534.7333333333333
999,530.0,534.8
1000,483.0,534.8
1001,477.0,534.7
1002,510.0,534.7333333333333
1003,546.0,534.6333333333333
1004,533.0,534.7
1005,489.0,534.5
1006,481.0,534.4
1007,515.0,534.4333333333333
1008,549.0,534.4666666666667
1009,530.0,534.4333333333333
1010,486.0,534.4666666666667
1011,478.0,534.5333333333333
1012,508.0,534.5333333333333
1013,542.0,534.4
1014,528.0,534.2666666666667
1015,484.0,534.4
1016,479.0,534.4666666666667
1017,512.0,534.4
1018,546.0,534.4333333333333
1019,531.0,534.4333333333333
1020,487.0,534.4
1021,479.0,534.4666666666667
1022,510.0,534.5333333333333
1023,545.0,534.5
1024,531.0,534.5
1025,485.0,534.7
1026,479.0,534.8666666666667
1027,507.0,534.9333333333333
1028,548.0,534.9333333333333
1029,536.0,535.1333333333333
1030,486.0,535.0333333333333
1031,482.0,534.8666666666667
1032,516.0,534.9333333333333
1033,550.0,535.0666666666667
1034,536.0,535.1666666666666
1035,486.0,535.2666666666667
1036,479.0,535.3333333333334
1037,514.0,535.3
1038,548.0,535.2666666666667
1039,532.0,535.3333333333334
1040,486.0,535.3333333333334
1041,480.0,535.2666666666667
1042,513.0,535.1666666666666
1043,550.0,535.4333333333333
1044,532.0,535.5666666666667
1045,483.0,535.6
1046,476.0,535.7
1047,505.0,535.9333333333333
1048,540.0,535.7333333333333
1049,528.0,535.6333333333333
1050,489.0,535.5666666666667
1051,481.0,535.5
1052,512.0,535.4333333333333
1053,547.0,535.5
1054,532.0,535.5333333333333
1055,485.0,535.5333333333333
1056,476.0,535.6333333333333
1057,504.0,535.7333333333333
1058,547.0,535.7
1059,538.0,535.7666666666667
1060,491.0,535.6
1061,480.0,535.6666666666666
1062,513.0,535.5666666666667
1063,545.0,535.4
1064,533.0,535.3
1065,490.0,535.1666666666666
1066,483.0,535.0333333333333
1067,514.0,535.0333333333333
1068,545.0,534.9333333333333
1069,529.0,534.8333333333334
1070,486.0,534.8333333333334
1071,475.0,535.0
1072,510.0,535.0333333333333
1073,545.0,534.8666666666667
1074,534.0,534.9333333333333
1075,489.0,534.7333333333333
1076,480.0,534.6
1077,512.0,534.3666666666667
1078,546.0,534.5666666666667
1079,533.0,534.7333333333333
1080,488.0,534.7666666666667
1081,482.0,534.7333333333333
1082,510.0,534.8
1083,544.0,534.7
1084,533.0,534.7333333333333
1085,487.0,534.6666666666666
1086,479.0,534.5666666666667
1087,508.0,534.4333333333333
1088,544.0,534.3333333333334
1089,528.0,534.0
1090,488.0,534.1
1091,484.0,533.9666666666667
1092,513.0,533.9666666666667
1093,546.0,534.0
1094,535.0,534.0666666666667
1095,488.0,534.1333333333333
1096,477.0,534.3333333333334
1097,507.0,534.4333333333333
1098,541.0,534.3
1099,532.0,534.4
1100,491.0,534.2333333333333
1101,481.0,534.0333333333333
1102,512.0,533.9666666666667
1103,546.0,534.0
1104,531.0,533.9
1105,489.0,533.9
1106,481.0,533.8666666666667
1107,506.0,534.0666666666667
1108,542.0,533.9333333333333
1109,535.0,534.0
1110,493.0,533.8333333333334
1111,481.0,533.8666666666667
1112,511.0,533.8333333333334
1113,548.0,533.9666666666667
1114,536.0,534.0666666666667
1115,488.0,534.0333333333333
1116,477.0,534.1
1117,509.0,534.0666666666667
1118,548.0,534.2
1119,535.0,534.4333333333333
1120,492.0,534.3
1121,480.0,534.4333333333333
1122,509.0,534.5
1123,542.0,534.3666666666667
1124,530.0,534.2
1125,485.0,534.3
1126,475.0,534.3666666666667
1127,507.0,534.3666666666667
1128,548.0,534.6
1129,536.0,534.7333333333333
1130,489.0,534.8
1131,479.0,534.8666666666667
1132,508.0,535.0
1133,545.0,534.9666666666667
1134,532.0,535.0
1135,482.0,535.2333333333333
1136,473.0,535.5
1137,503.0,535.6
1138,540.0,535.5333333333333
1139,534.0,535.5
1140,490.0,535.6
1141,479.0,535.6666666666666
1142,509.0,535.7333333333333
1143,544.0,535.6
1144,535.0,535.5666666666667
1145,482.0,535.7666666666667
1146,472.0,535.9333333333333
1147,500.0,536.2333333333333
1148,538.0,535.9
1149,530.0,535.7333333333333
1150,485.0,535.9666666666667
1151,477.0,536.0666666666667
1152,503.0,536.2666666666667
1153,541.0,536.2333333333333
1154,531.0,536.2666666666667
1155,486.0,536.2333333333333
1156,477.0,536.1666666666666
1157,503.0,536.3
1158,544.0,536.1666666666666
1159,534.0,536.1
1160,487.0,536.1666666666666
1161,472.0,536.4
1162,507.0,536.4333333333333
1163,544.0,536.4
1164,535.0,536.5
1165,493.0,536.1333333333333
1166,481.0,535.8666666666667
1167,511.0,535.6
1168,548.0,535.8666666666667
1169,532.0,535.8
1170,486.0,535.9333333333333
1171,474.0,536.1
1172,508.0,536.1333333333333
1173,545.0,536.1666666666666
1174,531.0,536.0333333333333
1175,484.0,535.9666666666667
1176,478.0,535.7666666666667
1177,506.0,535.5666666666667
1178,545.0,535.8
1179,534.0,535.9333333333333
1180,488.0,535.8333333333334
1181,478.0,535.8
1182,508.0,535.6333333333333
1183,547.0,535.8333333333334
1184,537.0,536.0333333333333
1185,486.0,536.0333333333333
1186,476.0,536.0666666666667
1187,506.0,535.9666666666667
1188,548.0,536.1
1189,537.0,536.2
1190,491.0,536.0666666666667
1191,475.0,535.9666666666667
1192,504.0,536.0666666666667
1193,544.0,536.0666666666667
1194,528.0,535.8333333333334
1195,484.0,536.1333333333333
1196,478.0,536.2333333333333
1197,506.0,536.4
1198,544.0,536.2666666666667
1199,534.0,536.3333333333334
1200,490.0,536.2
1201,479.0,536.0333333333333
1202,508.0,536.0333333333333
1203,547.0,536.1
1204,536.0,536.2666666666667
1205,491.0,536.0333333333333
1206,481.0,535.9333333333333
1207,506.0,535.9333333333333
1208,545.0,535.9333333333333
1209,534.0,535.9333333333333
1210,490.0,535.8666666666667
1211,475.0,535.9666666666667
1212,507.0,536.0
1213,546.0,535.9666666666667
1214,539.0,536.0333333333333
1215,496.0,535.7
1216,484.0,535.4333333333333
1217,513.0,535.2666666666667
1218,551.0,535.3666666666667
1219,537.0,535.3666666666667
1220,489.0,535.4333333333333
1221,480.0,535.2666666666667
1222,509.0,535.1
1223,546.0,535.1666666666666
1224,536.0,535.4333333333333
1225,492.0,535.1666666666666
1226,478.0,535.1666666666666
1227,512.0,534.9666666666667
1228,548.0,535.1
1229,540.0,535.3
1230,492.0,535.2333333333333
1231,480.0,535.2
1232,512.0,535.0666666666667
1233,546.0,535.0333333333333
1234,532.0,534.9
1235,486.0,535.0666666666667
1236,475.0,535.2666666666667
1237,505.0,535.3
1238,545.0,535.3
1239,537.0,535.4
1240,488.0,535.4666666666667
1241,478.0,535.3666666666667
1242,506.0,535.4
1243,543.0,535.3
1244,536.0,535.2
1245,491.0,535.3666666666667
1246,478.0,535.5666666666667
1247,507.0,535.7
1248,542.0,535.4
1249,533.0,535.2666666666667
