Action_Label,hiya_down
Fs_Hz,250
Total_Samples,1250

Sample_Index,Raw_EMG,Envelope
0,477.0,534.3333333333334
1,512.0,534.0333333333333
2,547.0,534.0
3,520.0,533.9666666666667
4,487.0,533.9333333333333
5,489.0,533.8333333333334
6,521.0,533.8
7,549.0,533.9
8,519.0,533.9333333333333
9,486.0,533.9333333333333
10,489.0,533.8666666666667
11,523.0,533.9666666666667
12,550.0,534.0333333333333
13,519.0,533.9666666666667
14,485.0,533.9666666666667
15,485.0,533.8333333333334
16,522.0,534.1
17,548.0,534.2333333333333
18,520.0,534.3
19,491.0,533.9666666666667
20,490.0,533.7666666666667
21,524.0,533.7333333333333
22,552.0,533.6666666666666
23,523.0,533.8
24,482.0,533.7
25,482.0,533.7666666666667
26,518.0,533.6333333333333
27,547.0,533.4666666666667
28,514.0,533.3333333333334
29,483.0,533.0
30,490.0,532.5666666666667
31,526.0,533.0333333333333
32,548.0,533.0666666666667
33,521.0,533.1
34,488.0,533.0666666666667
35,489.0,533.0666666666667
36,521.0,533.0666666666667
37,548.0,533.0333333333333
38,519.0,533.0333333333333
39,487.0,533.0
40,485.0,533.1333333333333
41,518.0,532.9666666666667
42,545.0,532.8
43,518.0,532.7666666666667
44,483.0,532.8333333333334
45,483.0,532.9
46,521.0,532.8666666666667
47,549.0,532.9
48,520.0,532.9
49,483.0,533.1666666666666
50,482.0,533.4333333333333
51,518.0,533.2333333333333
52,549.0,533.1333333333333
53,518.0,532.9666666666667
54,485.0,532.8666666666667
55,484.0,532.8
56,518.0,532.8
57,549.0,532.8666666666667
58,522.0,533.1333333333333
59,484.0,533.1
60,483.0,533.3333333333334
61,521.0,533.1666666666666
62,545.0,533.0666666666667
63,519.0,533.0
64,484.0,533.1333333333333
65,478.0,533.5
66,510.0,533.2666666666667
67,543.0,533.1
68,516.0,533.0
69,483.0,533.1333333333333
70,485.0,533.1333333333333
71,520.0,533.2
72,550.0,533.3666666666667
73,520.0,533.4333333333333
74,481.0,533.5
75,482.0,533.5333333333333
76,518.0,533.4333333333333
77,548.0,533.4
78,517.0,533.3
79,483.0,533.3
80,485.0,533.2
81,517.0,533.1666666666666
82,545.0,533.0333333333333
83,520.0,533.1
84,482.0,533.2
85,482.0,533.2666666666667
86,517.0,533.2333333333333
87,543.0,533.0333333333333
88,516.0,532.8333333333334
89,484.0,532.8333333333334
90,486.0,532.7333333333333
91,522.0,532.7666666666667
92,550.0,532.9333333333333
93,521.0,533.0
94,484.0,533.0
95,485.0,532.7666666666667
96,520.0,532.9666666666667
97,551.0,533.2333333333333
98,516.0,533.2333333333333
99,478.0,533.4
100,483.0,533.4666666666667
101,522.0,533.5333333333333
102,553.0,533.6333333333333
103,525.0,533.8
104,489.0,533.5333333333333
105,485.0,533.4333333333333
106,517.0,533.4
107,548.0,533.4
108,522.0,533.5666666666667
109,485.0,533.5
110,485.0,533.5
111,515.0,533.4333333333333
112,544.0,533.4
113,518.0,533.3333333333334
114,482.0,533.3333333333334
115,484.0,533.2666666666667
116,519.0,533.3333333333334
117,552.0,533.6333333333333
118,524.0,533.9
119,487.0,533.8
120,487.0,533.7666666666667
121,519.0,533.6666666666666
122,547.0,533.5666666666667
123,521.0,533.5666666666667
124,486.0,533.5
125,483.0,533.5666666666667
126,518.0,533.5
127,548.0,533.4
128,521.0,533.5666666666667
129,486.0,533.3
130,483.0,533.3
131,514.0,533.0333333333333
132,546.0,532.8
133,519.0,532.6
134,481.0,532.8666666666667
135,482.0,532.9666666666667
136,517.0,532.9666666666667
137,548.0,532.9666666666667
138,520.0,532.9
139,481.0,533.0333333333333
140,480.0,533.2
141,516.0,533.2333333333333
142,548.0,533.3666666666667
143,519.0,533.4
144,482.0,533.4
145,483.0,533.4333333333333
146,519.0,533.4333333333333
147,549.0,533.3333333333334
148,521.0,533.2333333333333
149,488.0,533.2
150,485.0,533.2666666666667
151,515.0,533.1333333333333
152,543.0,533.0
153,520.0,532.9666666666667
154,482.0,533.1
155,485.0,533.0333333333333
156,518.0,533.0333333333333
157,548.0,533.0333333333333
158,523.0,533.1
159,485.0,533.1333333333333
160,484.0,533.1
161,515.0,533.1333333333333
162,545.0,533.1
163,520.0,533.1333333333333
164,484.0,533.0333333333333
165,485.0,532.9333333333333
166,520.0,533.0333333333333
167,552.0,533.1666666666666
168,524.0,533.3
169,485.0,533.1666666666666
170,485.0,533.0
171,519.0,533.1
172,548.0,533.1
173,520.0,533.1333333333333
174,482.0,533.1333333333333
175,484.0,533.1
176,512.0,532.8666666666667
177,540.0,532.5666666666667
178,519.0,532.5
179,484.0,532.6333333333333
180,484.0,532.6666666666666
181,516.0,532.7
182,546.0,532.8
183,520.0,532.8
184,485.0,532.7
185,485.0,532.7
186,518.0,532.7
187,548.0,532.7
188,522.0,532.6666666666666
189,486.0,532.6333333333333
190,483.0,532.6666666666666
191,515.0,532.6666666666666
192,545.0,532.6666666666666
193,523.0,532.7666666666667
194,486.0,532.7
195,484.0,532.7333333333333
196,516.0,532.6
197,543.0,532.3
198,518.0,532.1
199,486.0,532.0666666666667
200,487.0,532.0
201,522.0,532.1
202,547.0,532.0666666666667
203,521.0,532.1
204,483.0,532.0666666666667
205,481.0,532.1666666666666
206,516.0,532.3
207,549.0,532.6
208,522.0,532.7
209,488.0,532.5666666666667
210,489.0,532.4
211,523.0,532.6333333333333
212,551.0,532.8
213,524.0,532.9333333333333
214,488.0,532.8333333333334
215,486.0,532.8
216,518.0,532.8
217,548.0,532.8
218,520.0,532.7333333333333
219,483.0,532.8333333333334
220,484.0,532.8
221,519.0,532.9333333333333
222,549.0,533.0666666666667
223,524.0,533.1
224,484.0,533.1666666666666
225,481.0,533.2666666666667
226,514.0,533.2
227,549.0,533.4
228,519.0,533.4333333333333
229,481.0,533.6
230,481.0,533.8
231,516.0,533.6
232,545.0,533.5333333333333
233,517.0,533.4
234,486.0,533.3
235,482.0,533.2666666666667
236,516.0,533.2666666666667
237,546.0,533.1666666666666
238,521.0,533.1333333333333
239,481.0,533.3666666666667
240,483.0,533.5666666666667
241,519.0,533.4333333333333
242,549.0,533.3666666666667
243,522.0,533.3
244,482.0,533.5
245,480.0,533.7
246,515.0,533.6
247,548.0,533.6
248,525.0,533.7666666666667
249,489.0,533.5666666666667
250,484.0,533.5666666666667
251,514.0,533.4
252,549.0,533.4
253,531.0,533.6333333333333
254,492.0,533.3666666666667
255,487.0,533.1666666666666
256,521.0,533.4
257,551.0,533.4666666666667
258,525.0,533.6666666666666
259,487.0,533.4666666666667
260,487.0,533.2666666666667
261,515.0,533.2333333333333
262,545.0,533.2333333333333
263,522.0,533.4
264,485.0,533.4333333333333
265,485.0,533.3333333333334
266,517.0,533.3666666666667
267,545.0,533.3333333333334
268,521.0,533.3333333333334
269,487.0,533.1333333333333
270,486.0,533.0333333333333
271,519.0,533.0333333333333
272,552.0,533.1333333333333
273,527.0,533.3
274,491.0,533.0
275,488.0,532.7333333333333
276,517.0,532.8
277,550.0,532.8666666666667
278,527.0,532.9333333333333
279,490.0,532.9
280,484.0,532.9
281,514.0,532.9
282,545.0,532.7666666666667
283,523.0,532.5
284,486.0,532.7
285,483.0,532.8333333333334
286,515.0,532.6333333333333
287,548.0,532.5333333333333
288,525.0,532.5333333333333
289,487.0,532.5333333333333
290,485.0,532.6
291,518.0,532.7
292,551.0,532.9
293,533.0,533.2666666666667
294,489.0,533.1333333333333
295,479.0,533.3333333333334
296,511.0,533.2
297,543.0,533.1333333333333
298,524.0,533.2333333333333
299,489.0,533.1666666666666
300,484.0,533.2333333333333
301,513.0,533.0333333333333
302,549.0,532.9333333333333
303,526.0,532.9
304,484.0,533.1333333333333
305,482.0,533.3333333333334
306,509.0,533.2666666666667
307,543.0,533.0333333333333
308,526.0,533.0
309,487.0,533.1
310,481.0,533.2
311,516.0,533.2666666666667
312,548.0,533.3666666666667
313,524.0,533.4
314,485.0,533.4333333333333
315,483.0,533.4333333333333
316,515.0,533.4333333333333
317,548.0,533.4333333333333
318,521.0,533.3
319,484.0,533.4
320,481.0,533.5333333333333
321,514.0,533.4
322,544.0,533.1666666666666
323,519.0,532.7
324,481.0,532.9666666666667
325,476.0,533.0666666666667
326,481.0,534.0666666666667
327,471.0,534.4
328,473.0,535.3
329,486.0,535.4
330,483.0,535.4333333333333
331,471.0,536.7666666666667
332,458.0,537.3333333333334
333,432.0,539.5333333333333
334,437.0,541.1
335,468.0,541.5666666666667
336,497.0,541.9666666666667
337,520.0,541.2
338,467.0,542.2333333333333
339,419.0,544.5
340,429.0,546.2333333333333
341,462.0,547.7666666666667
342,526.0,547.0333333333333
343,439.0,549.0666666666667
344,424.0,551.1
345,512.0,550.1333333333333
346,576.0,552.1666666666666
347,608.0,554.1666666666666
348,561.0,555.5
349,467.0,556.0666666666667
350,475.0,556.2666666666667
351,574.0,558.2666666666667
352,655.0,561.9666666666667
353,636.0,565.8666666666667
354,580.0,567.1
355,495.0,566.4666666666667
356,481.0,566.4666666666667
357,533.0,565.8
358,573.0,566.5333333333333
359,549.0,566.9
360,559.0,567.5
361,584.0,568.5333333333333
362,618.0,570.2666666666667
363,589.0,570.1666666666666
364,539.0,568.5666666666667
365,512.0,567.1
366,538.0,567.4666666666667
367,546.0,568.3333333333334
368,508.0,566.9666666666667
369,487.0,564.7
370,488.0,562.7333333333333
371,505.0,561.3
372,560.0,562.4333333333333
373,533.0,560.7
374,513.0,557.8
375,464.0,559.4
376,431.0,559.9666666666667
377,420.0,559.8333333333334
378,440.0,560.6
379,435.0,561.6666666666666
380,443.0,562.7333333333333
381,472.0,562.0
382,485.0,558.1333333333333
383,458.0,555.8
384,513.0,553.5666666666667
385,512.0,553.0
386,481.0,553.0
387,454.0,554.2333333333333
388,451.0,554.2333333333333
389,480.0,554.0666666666667
390,489.0,553.2666666666667
391,510.0,550.9333333333333
392,524.0,547.8
393,510.0,545.3
394,514.0,544.4666666666667
395,517.0,544.6333333333333
396,524.0,544.1666666666666
397,524.0,543.4333333333333
398,501.0,543.6666666666666
399,495.0,543.4
400,517.0,542.7666666666667
401,527.0,543.0333333333333
402,522.0,541.7666666666667
403,494.0,541.6666666666666
404,490.0,542.3666666666667
405,506.0,540.9666666666667
406,513.0,538.3
407,526.0,535.7
408,510.0,533.3666666666667
409,493.0,531.4333333333333
410,500.0,529.5333333333333
411,522.0,528.5333333333333
412,538.0,528.5
413,518.0,526.9
414,482.0,527.8666666666667
415,484.0,528.8
416,520.0,528.0333333333333
417,551.0,527.4
418,522.0,525.7
419,485.0,525.5333333333333
420,486.0,525.6333333333333
421,504.0,525.8333333333334
422,525.0,525.8666666666667
423,501.0,526.1666666666666
424,478.0,527.2333333333333
425,481.0,528.1
426,512.0,527.7
427,525.0,527.7333333333333
428,499.0,527.8
429,485.0,528.1333333333333
430,492.0,528.6333333333333
431,512.0,528.1333333333333
432,520.0,528.0666666666667
433,497.0,527.9666666666667
434,476.0,528.4333333333333
435,487.0,529.0666666666667
436,508.0,529.1666666666666
437,514.0,528.7666666666667
438,495.0,529.2666666666667
439,483.0,529.6
440,495.0,529.7666666666667
441,514.0,529.5
442,528.0,529.1666666666666
443,503.0,529.2666666666667
444,490.0,529.0
445,499.0,528.5
446,512.0,528.2333333333333
447,522.0,527.2666666666667
448,504.0,527.2
449,494.0,526.9
450,509.0,526.1333333333333
451,524.0,526.2666666666667
452,534.0,526.5666666666667
453,514.0,526.2666666666667
454,505.0,525.3666666666667
455,515.0,524.4333333333333
456,532.0,525.1
457,541.0,525.6333333333333
458,522.0,525.5333333333333
459,506.0,524.8333333333334
460,513.0,524.2
461,531.0,524.8333333333334
462,541.0,525.5333333333333
463,518.0,525.2333333333333
464,500.0,524.4333333333333
465,511.0,523.6333333333333
466,531.0,524.1333333333333
467,543.0,525.1
468,520.0,524.8
469,499.0,524.2666666666667
470,510.0,523.7666666666667
471,533.0,524.4
472,546.0,525.0
473,522.0,525.0333333333333
474,498.0,524.7666666666667
475,507.0,524.5
476,529.0,525.0666666666667
477,542.0,525.7333333333333
478,519.0,525.7
479,501.0,525.4666666666667
480,511.0,525.4
481,528.0,525.5333333333333
482,540.0,525.7333333333333
483,517.0,525.8333333333334
484,495.0,526.1666666666666
485,505.0,526.3
486,526.0,526.1
487,538.0,526.0
488,515.0,525.7666666666667
489,494.0,526.1666666666666
490,505.0,526.3666666666667
491,524.0,526.1333333333333
492,540.0,526.1
493,519.0,526.1333333333333
494,499.0,526.1666666666666
495,505.0,526.3666666666667
496,526.0,526.2
497,541.0,526.1333333333333
498,513.0,525.9
499,492.0,526.1333333333333
500,500.0,526.4666666666667
501,525.0,526.2
502,540.0,526.0
503,518.0,525.8666666666667
504,496.0,525.9333333333333
505,502.0,526.1
506,524.0,525.9333333333333
507,539.0,525.8333333333334
508,515.0,525.7
509,490.0,526.0666666666667
510,494.0,526.6333333333333
511,525.0,526.5333333333333
512,548.0,526.8
513,523.0,527.0
514,499.0,526.8666666666667
515,504.0,526.9
516,526.0,526.9
517,537.0,526.8666666666667
518,516.0,526.9
519,495.0,526.8666666666667
520,498.0,527.1
521,524.0,527.1
522,542.0,527.1666666666666
523,515.0,527.0333333333333
524,497.0,527.1
525,506.0,527.0666666666667
526,528.0,527.1333333333333
527,542.0,527.1666666666666
528,517.0,527.3
529,495.0,527.2
530,501.0,527.1666666666666
531,521.0,527.0333333333333
532,536.0,526.9
533,514.0,526.7666666666667
534,495.0,526.8
535,503.0,526.7666666666667
536,524.0,526.7666666666667
537,537.0,526.7
538,511.0,526.6333333333333
539,491.0,526.6
540,497.0,526.5
541,521.0,526.3666666666667
542,537.0,526.0
543,515.0,525.7333333333333
544,500.0,525.7
545,504.0,525.7
546,521.0,525.5333333333333
547,537.0,525.5333333333333
548,514.0,525.4666666666667
549,492.0,525.5666666666667
550,497.0,525.6
551,520.0,525.4666666666667
552,537.0,525.3
553,514.0,525.2666666666667
554,491.0,525.4666666666667
555,499.0,525.7
556,523.0,525.5333333333333
557,539.0,525.4333333333333
558,517.0,525.4333333333333
559,492.0,525.5333333333333
560,501.0,525.5333333333333
561,523.0,525.6
562,537.0,525.6333333333333
563,517.0,525.7333333333333
564,495.0,525.7333333333333
565,502.0,525.7666666666667
566,520.0,525.6333333333333
567,536.0,525.6
568,513.0,525.6
569,489.0,525.6666666666666
570,501.0,525.5333333333333
571,523.0,525.6
572,537.0,525.6
573,515.0,525.6
574,492.0,525.8666666666667
575,498.0,526.0666666666667
576,523.0,526.1333333333333
577,540.0,526.2333333333333
578,517.0,526.3333333333334
579,495.0,526.2333333333333
580,500.0,526.1333333333333
581,522.0,526.2
582,537.0,526.2
583,512.0,526.1333333333333
584,492.0,526.1
585,499.0,526.1
586,522.0,526.0666666666667
587,540.0,526.1
588,518.0,526.1333333333333
589,489.0,526.2333333333333
590,494.0,526.4666666666667
591,519.0,526.3333333333334
592,536.0,526.3
593,511.0,526.1666666666666
594,488.0,526.4
595,495.0,526.6333333333333
596,522.0,526.7
597,541.0,526.8666666666667
598,520.0,527.1
599,492.0,527.0
600,495.0,527.2
601,521.0,527.1333333333333
602,540.0,527.2333333333333
603,512.0,527.1333333333333
604,487.0,527.3
605,499.0,527.2666666666667
606,521.0,527.2
607,540.0,527.2
608,517.0,527.2
609,491.0,527.3333333333334
610,494.0,527.5333333333333
611,523.0,527.5666666666667
612,543.0,527.7666666666667
613,524.0,528.1666666666666
614,499.0,527.9333333333333
615,497.0,528.0
616,515.0,527.7666666666667
617,533.0,527.5333333333333
618,511.0,527.3666666666667
619,486.0,527.4666666666667
620,493.0,527.5
621,519.0,527.5
622,544.0,527.7666666666667
623,520.0,528.0
624,488.0,528.0
625,489.0,528.2
626,515.0,527.9666666666667
627,538.0,527.8666666666667
628,513.0,527.6333333333333
629,487.0,527.8
630,493.0,527.8666666666667
631,519.0,527.8
632,543.0,527.9
633,519.0,528.1333333333333
634,490.0,528.0333333333333
635,494.0,528.2
636,516.0,528.0333333333333
637,535.0,527.8666666666667
638,515.0,527.8
639,489.0,527.8666666666667
640,494.0,527.8666666666667
641,524.0,527.9
642,541.0,527.8333333333334
643,517.0,527.6
644,490.0,527.9
645,492.0,528.0666666666667
646,519.0,528.2
647,537.0,528.3333333333334
648,512.0,528.3
649,486.0,528.3
650,489.0,528.4333333333333
651,518.0,528.4
652,539.0,528.2333333333333
653,517.0,528.1333333333333
654,489.0,528.1
655,494.0,527.9333333333333
656,519.0,528.0666666666667
657,540.0,528.1333333333333
658,517.0,528.2666666666667
659,489.0,528.2
660,495.0,528.1333333333333
661,520.0,528.1666666666666
662,540.0,528.0666666666667
663,515.0,527.9333333333333
664,486.0,528.0666666666667
665,496.0,528.0
666,523.0,528.2333333333333
667,546.0,528.6
668,521.0,528.8
669,490.0,528.7666666666667
670,492.0,528.8333333333334
671,518.0,528.6333333333333
672,543.0,528.7
673,522.0,528.8666666666667
674,490.0,528.8666666666667
675,491.0,528.9
676,514.0,528.7333333333333
677,534.0,528.6333333333333
678,514.0,528.7
679,483.0,528.8
680,487.0,528.8666666666667
681,513.0,528.7
682,537.0,528.6333333333333
683,515.0,528.5666666666667
684,488.0,528.6
685,494.0,528.6
686,520.0,528.6333333333333
687,542.0,528.7
688,522.0,528.8666666666667
689,490.0,528.8333333333334
690,493.0,528.9
691,517.0,528.8
692,539.0,528.7666666666667
693,518.0,528.8666666666667
694,492.0,528.6666666666666
695,496.0,528.6666666666666
696,521.0,528.6
697,540.0,528.4
698,518.0,528.3
699,488.0,528.3666666666667
700,489.0,528.4666666666667
701,516.0,528.4
702,541.0,528.3333333333334
703,519.0,528.2333333333333
704,488.0,528.3
705,495.0,528.1666666666666
706,523.0,528.4666666666667
707,544.0,528.8
708,521.0,529.0333333333333
709,489.0,528.8333333333334
710,490.0,528.7333333333333
711,515.0,528.8
712,539.0,528.8666666666667
713,522.0,529.1
714,492.0,528.9666666666667
715,493.0,529.0
716,517.0,528.9
717,543.0,528.9333333333333
718,519.0,528.8333333333334
719,484.0,529.0333333333333
720,488.0,529.2
721,516.0,529.1666666666666
722,536.0,529.0666666666667
723,517.0,529.0333333333333
724,488.0,529.1666666666666
725,490.0,529.3666666666667
726,518.0,529.2666666666667
727,542.0,529.3333333333334
728,521.0,529.4333333333333
729,486.0,529.5
730,493.0,529.3666666666667
731,522.0,529.5666666666667
732,543.0,529.6333333333333
733,520.0,529.6666666666666
734,492.0,529.5333333333333
735,494.0,529.5666666666667
736,517.0,529.3666666666667
737,544.0,529.3666666666667
738,523.0,529.4333333333333
739,495.0,529.2333333333333
740,493.0,529.1333333333333
741,519.0,529.2666666666667
742,540.0,529.3
743,517.0,529.1333333333333
744,486.0,529.3333333333334
745,489.0,529.4666666666667
746,519.0,529.5333333333333
747,542.0,529.5
748,519.0,529.5
749,488.0,529.3666666666667
750,488.0,529.3666666666667
751,513.0,529.2666666666667
752,539.0,529.3666666666667
753,523.0,529.5666666666667
754,491.0,529.4666666666667
755,491.0,529.4333333333333
756,517.0,529.4
757,540.0,529.3333333333334
758,521.0,529.3333333333334
759,493.0,529.1
760,495.0,529.0333333333333
761,519.0,528.9333333333333
762,544.0,528.9666666666667
763,527.0,529.2
764,496.0,529.0666666666667
765,493.0,529.1
766,516.0,529.0666666666667
767,541.0,528.9666666666667
768,521.0,528.9
769,490.0,529.0666666666667
770,490.0,529.1666666666666
771,518.0,529.1333333333333
772,539.0,529.1
773,515.0,529.0333333333333
774,490.0,528.9
775,494.0,528.7333333333333
776,519.0,528.7333333333333
777,542.0,528.7333333333333
778,521.0,528.8
779,491.0,528.7
780,492.0,528.5666666666667
781,516.0,528.6666666666666
782,543.0,528.8
783,520.0,528.7
784,490.0,528.7333333333333
785,490.0,528.7666666666667
786,515.0,528.7
787,545.0,528.8666666666667
788,522.0,528.9
789,489.0,529.0333333333333
790,491.0,529.1666666666666
791,520.0,529.2
792,546.0,529.2666666666667
793,521.0,529.0666666666667
794,487.0,529.3666666666667
795,489.0,529.5
796,513.0,529.4
797,540.0,529.3666666666667
798,521.0,529.3666666666667
799,489.0,529.4
800,487.0,529.5
801,514.0,529.3666666666667
802,539.0,529.3666666666667
803,521.0,529.5666666666667
804,490.0,529.5666666666667
805,490.0,529.7
806,517.0,529.6333333333333
807,541.0,529.6
808,521.0,529.6
809,491.0,529.6
810,488.0,529.7333333333333
811,512.0,529.6
812,539.0,529.4666666666667
813,518.0,529.4
814,485.0,529.5666666666667
815,492.0,529.5
816,518.0,529.6
817,544.0,529.5666666666667
818,525.0,529.6666666666666
819,494.0,529.5
820,491.0,529.5
821,516.0,529.3666666666667
822,539.0,529.1333333333333
823,519.0,529.0666666666667
824,491.0,528.9333333333333
825,495.0,528.7333333333333
826,519.0,528.9333333333333
827,544.0,529.0666666666667
828,523.0,529.1333333333333
829,492.0,529.0333333333333
830,491.0,528.9
831,517.0,529.0
832,540.0,529.0333333333333
833,521.0,529.0333333333333
834,491.0,529.0
835,491.0,528.9666666666667
836,517.0,528.9666666666667
837,542.0,529.0
838,521.0,529.0
839,488.0,529.1
840,487.0,529.1333333333333
841,512.0,529.1333333333333
842,536.0,529.0333333333333
843,514.0,528.9
844,487.0,528.8333333333334
845,488.0,528.9666666666667
846,510.0,528.8333333333334
847,538.0,528.6333333333333
848,525.0,528.6333333333333
849,492.0,528.7
850,490.0,528.7333333333333
851,514.0,528.6666666666666
852,538.0,528.6333333333333
853,518.0,528.6
854,484.0,528.8333333333334
855,484.0,529.2
856,507.0,529.1333333333333
857,534.0,528.8
858,516.0,528.5666666666667
859,485.0,528.8
860,486.0,528.9666666666667
861,511.0,528.8333333333334
862,536.0,528.7
863,519.0,528.6333333333333
864,489.0,528.7
865,487.0,528.8333333333334
866,514.0,528.7333333333333
867,542.0,528.7333333333333
868,518.0,528.6333333333333
869,485.0,528.7333333333333
870,485.0,528.8
871,512.0,528.8
872,539.0,528.9
873,519.0,529.0666666666667
874,485.0,529.1333333333333
875,489.0,529.1
876,516.0,529.1666666666666
877,541.0,529.2666666666667
878,521.0,529.1333333333333
879,486.0,529.3333333333334
880,488.0,529.4
881,519.0,529.5666666666667
882,544.0,529.7666666666667
883,521.0,529.8666666666667
884,487.0,529.7666666666667
885,488.0,529.6333333333333
886,518.0,529.6666666666666
887,542.0,529.9333333333333
888,523.0,530.1666666666666
889,490.0,530.0
890,488.0,529.9333333333333
891,513.0,529.9333333333333
892,541.0,530.1
893,526.0,530.3333333333334
894,490.0,530.3
895,489.0,530.2333333333333
896,517.0,530.3333333333334
897,543.0,530.3666666666667
898,522.0,530.5
899,487.0,530.4333333333333
900,488.0,530.3333333333334
901,518.0,530.5333333333333
902,544.0,530.7
903,524.0,530.8666666666667
904,491.0,530.6666666666666
905,491.0,530.6
906,517.0,530.6333333333333
907,545.0,530.7666666666667
908,523.0,530.8333333333334
909,486.0,530.8333333333334
910,486.0,530.9
911,517.0,530.8333333333334
912,545.0,530.8666666666667
913,524.0,530.9666666666667
914,487.0,530.9666666666667
915,489.0,530.9333333333333
916,518.0,530.9333333333333
917,545.0,531.0333333333333
918,528.0,531.2
919,495.0,531.0333333333333
920,490.0,530.9666666666667
921,513.0,530.9666666666667
922,535.0,530.7666666666667
923,517.0,530.4666666666667
924,489.0,530.5
925,489.0,530.5
926,515.0,530.4333333333333
927,542.0,530.4
928,520.0,530.3333333333334
929,487.0,530.3333333333334
930,489.0,530.3
931,516.0,530.2333333333333
932,541.0,530.1333333333333
933,521.0,530.0333333333333
934,491.0,530.0333333333333
935,492.0,530.0
936,520.0,530.1
937,542.0,530.0
938,523.0,530.0
939,488.0,529.9333333333333
940,483.0,530.0333333333333
941,510.0,529.9333333333333
942,542.0,529.8333333333334
943,524.0,529.8333333333334
944,491.0,529.7
945,489.0,529.7
946,514.0,529.5666666666667
947,541.0,529.4333333333333
948,522.0,529.2333333333333
949,490.0,529.4
950,489.0,529.4333333333333
951,517.0,529.5666666666667
952,541.0,529.7666666666667
953,522.0,529.9333333333333
954,488.0,529.9666666666667
955,489.0,529.9666666666667
956,516.0,530.0
957,541.0,529.9666666666667
958,523.0,530.0666666666667
959,490.0,529.9666666666667
960,486.0,530.0666666666667
961,510.0,530.0
962,541.0,530.0
963,523.0,530.0666666666667
964,486.0,530.2333333333333
965,485.0,530.4666666666667
966,515.0,530.3
967,542.0,530.3
968,521.0,530.2333333333333
969,488.0,530.2333333333333
970,489.0,530.0333333333333
971,515.0,530.0666666666667
972,540.0,530.0
973,520.0,529.8666666666667
974,488.0,529.9666666666667
975,487.0,530.0333333333333
976,515.0,530.0666666666667
977,545.0,530.2
978,526.0,530.3333333333334
979,490.0,530.3333333333334
980,487.0,530.4
981,519.0,530.4666666666667
982,545.0,530.6
983,524.0,530.6666666666666
984,487.0,530.7
985,485.0,530.8333333333334
986,511.0,530.7333333333333
987,540.0,530.7
988,522.0,530.6666666666666
989,493.0,530.5666666666667
990,492.0,530.3666666666667
991,516.0,530.4333333333333
992,540.0,530.4
993,527.0,530.5333333333333
994,493.0,530.3
995,490.0,530.1333333333333
996,515.0,530.1333333333333
997,540.0,530.0666666666667
998,521.0,530.0666666666667
999,490.0,530.0
1000,488.0,530.0333333333333
1001,512.0,529.9333333333333
1002,539.0,529.9
1003,525.0,530.0666666666667
1004,490.0,530.0
1005,488.0,529.9666666666667
1006,516.0,530.0
1007,542.0,529.9
1008,522.0,529.7666666666667
1009,488.0,529.8333333333334
1010,486.0,529.8666666666667
1011,511.0,529.6666666666666
1012,541.0,529.5333333333333
1013,523.0,529.5
1014,488.0,529.4666666666667
1015,491.0,529.2666666666667
1016,518.0,529.4333333333333
1017,541.0,529.4666666666667
1018,521.0,529.4333333333333
1019,485.0,529.7
1020,485.0,529.9333333333333
1021,512.0,529.8
1022,541.0,529.8333333333334
1023,523.0,529.7
1024,490.0,529.8
1025,484.0,530.0
1026,507.0,530.0666666666667
1027,538.0,530.0
1028,525.0,530.1333333333333
1029,490.0,530.1333333333333
1030,483.0,530.3
1031,509.0,530.4
1032,543.0,530.5333333333333
1033,525.0,530.5333333333333
1034,487.0,530.6333333333333
1035,485.0,530.7333333333333
1036,510.0,530.6666666666666
1037,539.0,530.5666666666667
1038,527.0,530.7333333333333
1039,494.0,530.5333333333333
1040,484.0,530.6
1041,510.0,530.6333333333333
1042,538.0,530.5333333333333
1043,524.0,530.5666666666667
1044,488.0,530.5666666666667
1045,485.0,530.7666666666667
1046,509.0,530.6666666666666
1047,541.0,530.6666666666666
1048,527.0,530.8666666666667
1049,491.0,530.6666666666666
1050,487.0,530.6
1051,513.0,530.6333333333333
1052,546.0,530.8
1053,530.0,531.0333333333333
1054,491.0,531.0
1055,489.0,530.8333333333334
1056,513.0,530.7
1057,542.0,530.8333333333334
1058,527.0,530.9
1059,489.0,530.9333333333333
1060,486.0,530.8333333333334
1061,511.0,530.7666666666667
1062,542.0,530.7333333333333
1063,529.0,530.8666666666667
1064,489.0,530.8
1065,485.0,530.8
1066,513.0,530.7666666666667
1067,543.0,530.9
1068,528.0,530.9333333333333
1069,487.0,531.1666666666666
1070,486.0,531.1
1071,514.0,531.1
1072,545.0,531.3333333333334
1073,530.0,531.5333333333333
1074,491.0,531.4333333333333
1075,483.0,531.5
1076,512.0,531.4
1077,544.0,531.5
1078,528.0,531.5333333333333
1079,491.0,531.5333333333333
1080,484.0,531.6333333333333
1081,511.0,531.6333333333333
1082,543.0,531.5333333333333
1083,529.0,531.5
1084,491.0,531.5
1085,485.0,531.6333333333333
1086,511.0,531.6333333333333
1087,543.0,531.6666666666666
1088,530.0,531.7666666666667
1089,492.0,531.6666666666666
1090,487.0,531.6333333333333
1091,514.0,531.6666666666666
1092,542.0,531.6666666666666
1093,523.0,531.4666666666667
1094,484.0,531.6333333333333
1095,480.0,531.8
1096,514.0,531.8333333333334
1097,546.0,531.9333333333333
1098,530.0,532.0
1099,490.0,531.9
1100,484.0,531.9666666666667
1101,509.0,532.0
1102,540.0,531.8333333333334
1103,522.0,531.5666666666667
1104,484.0,531.8
1105,483.0,531.8
1106,511.0,531.8333333333334
1107,543.0,531.8
1108,527.0,531.7666666666667
1109,491.0,531.7666666666667
1110,486.0,531.7
1111,508.0,531.8
1112,538.0,531.6333333333333
1113,527.0,531.5666666666667
1114,489.0,531.6333333333333
1115,485.0,531.6333333333333
1116,511.0,531.6333333333333
1117,544.0,531.6666666666666
1118,526.0,531.5333333333333
1119,487.0,531.7
1120,478.0,532.0
1121,507.0,532.1
1122,540.0,532.0333333333333
1123,529.0,532.2333333333333
1124,488.0,532.1
1125,480.0,532.1
1126,504.0,532.3
1127,540.0,532.1
1128,528.0,532.0333333333333
1129,491.0,532.0
1130,484.0,532.0
1131,510.0,531.9666666666667
1132,541.0,532.0
1133,530.0,532.2666666666667
1134,489.0,532.1
1135,480.0,532.2
1136,508.0,532.3
1137,541.0,532.2333333333333
1138,524.0,532.1333333333333
1139,486.0,532.3
1140,482.0,532.4333333333333
1141,511.0,532.3333333333334
1142,542.0,532.4666666666667
1143,528.0,532.5
1144,492.0,532.4
1145,488.0,532.3
1146,512.0,532.2666666666667
1147,540.0,532.1333333333333
1148,524.0,532.0666666666667
1149,485.0,532.1333333333333
1150,481.0,532.0333333333333
1151,509.0,531.9666666666667
1152,542.0,532.0333333333333
1153,528.0,532.0
1154,488.0,532.0
1155,481.0,531.9666666666667
1156,507.0,531.8666666666667
1157,542.0,531.9333333333333
1158,527.0,531.9
1159,485.0,532.1
1160,478.0,532.3
1161,507.0,532.4
1162,540.0,532.3666666666667
1163,523.0,532.1333333333333
1164,485.0,532.2666666666667
1165,482.0,532.2
1166,510.0,532.1333333333333
1167,540.0,532.1
1168,525.0,532.1333333333333
1169,491.0,531.9666666666667
1170,483.0,531.9333333333333
1171,506.0,532.1
1172,537.0,531.9333333333333
1173,523.0,531.7666666666667
1174,486.0,531.9666666666667
1175,482.0,532.1666666666666
1176,509.0,532.2666666666667
1177,543.0,532.3666666666667
1178,527.0,532.4666666666667
1179,485.0,532.4666666666667
1180,479.0,532.5333333333333
1181,511.0,532.4666666666667
1182,548.0,532.6666666666666
1183,534.0,532.8666666666667
1184,490.0,532.8
1185,482.0,532.7666666666667
1186,509.0,532.7
1187,543.0,532.7333333333333
1188,527.0,532.7333333333333
1189,489.0,532.6
1190,490.0,532.2
1191,517.0,532.2
1192,547.0,532.4333333333333
1193,528.0,532.6
1194,488.0,532.5
1195,484.0,532.4333333333333
1196,510.0,532.4333333333333
1197,542.0,532.5
1198,528.0,532.6
1199,488.0,532.7
1200,485.0,532.6333333333333
1201,514.0,532.5
1202,546.0,532.8
1203,531.0,533.0666666666667
1204,492.0,532.8666666666667
1205,487.0,532.7
1206,517.0,532.7666666666667
1207,545.0,532.8333333333334
1208,532.0,533.0
1209,493.0,532.7333333333333
1210,485.0,532.5333333333333
1211,512.0,532.5
1212,543.0,532.3333333333334
1213,530.0,532.2
1214,491.0,532.1666666666666
1215,486.0,532.0333333333333
1216,509.0,532.0333333333333
1217,541.0,531.9666666666667
1218,528.0,532.0
1219,487.0,532.0666666666667
1220,480.0,532.4
1221,511.0,532.2666666666667
1222,546.0,532.2333333333333
1223,532.0,532.3666666666667
1224,492.0,532.2333333333333
1225,484.0,532.2333333333333
1226,511.0,532.2
1227,541.0,532.1666666666666
1228,528.0,532.1666666666666
1229,488.0,532.1666666666666
1230,483.0,532.2333333333333
1231,515.0,532.2666666666667
1232,547.0,532.3
1233,531.0,532.3
1234,490.0,532.3666666666667
1235,483.0,532.5
1236,508.0,532.4666666666667
1237,539.0,532.2666666666667
1238,526.0,532.0666666666667
1239,493.0,532.0666666666667
1240,488.0,531.9666666666667
1241,514.0,532.0333333333333
1242,545.0,532.1
1243,535.0,532.2666666666667
1244,494.0,532.1666666666666
1245,482.0,532.3
1246,506.0,532.4
1247,543.0,532.4666666666667
1248,534.0,532.6666666666666
1249,493.0,532.4666666666667
